  20.0000        12
  20.0500        11
  20.1000        12
  20.1500         7
  20.2000        11
  20.2500        11
  20.3000        12
  20.3500        15
  20.4000         9
  20.4500        13
  20.5000        12
  20.5500         9
  20.6000         8
  20.6500         7
  20.7000        16
  20.7500        13
  20.8000        14
  20.8500         8
  20.9000        15
  20.9500        12
  21.0000        14
  21.0500         6
  21.1000         8
  21.1500        10
  21.2000        15
  21.2500        14
  21.3000         9
  21.3500        12
  21.4000        10
  21.4500         6
  21.5000        13
  21.5500         9
  21.6000        13
  21.6500        11
  21.7000        12
  21.7500        10
  21.8000        15
  21.8500        16
  21.9000        10
  21.9500        14
  22.0000         9
  22.0500        13
  22.1000        15
  22.1500        14
  22.2000        11
  22.2500         9
  22.3000         6
  22.3500         6
  22.4000        10
  22.4500        17
  22.5000        13
  22.5500        10
  22.6000         8
  22.6500        14
  22.7000        12
  22.7500         9
  22.8000        13
  22.8500        17
  22.9000         8
  22.9500        10
  23.0000        15
  23.0500         9
  23.1000         9
  23.1500        13
  23.2000        10
  23.2500        21
  23.3000        11
  23.3500        10
  23.4000         9
  23.4500         6
  23.5000        11
  23.5500        10
  23.6000        11
  23.6500        12
  23.7000        19
  23.7500        11
  23.8000        17
  23.8500        12
  23.9000         8
  23.9500        16
  24.0000        11
  24.0500        12
  24.1000         7
  24.1500        11
  24.2000         6
  24.2500         9
  24.3000         7
  24.3500        16
  24.4000        10
  24.4500         7
  24.5000        13
  24.5500        11
  24.6000        12
  24.6500        12
  24.7000        19
  24.7500         7
  24.8000        16
  24.8500        12
  24.9000        13
  24.9500        11
  25.0000        11
  25.0500        12
  25.1000         6
  25.1500         8
  25.2000        11
  25.2500        11
  25.3000        20
  25.3500        12
  25.4000        11
  25.4500        10
  25.5000        14
  25.5500         8
  25.6000         9
  25.6500         9
  25.7000        11
  25.7500        10
  25.8000         7
  25.8500        14
  25.9000        13
  25.9500        10
  26.0000         6
  26.0500         6
  26.1000        11
  26.1500         8
  26.2000        10
  26.2500         6
  26.3000         5
  26.3500        11
  26.4000        22
  26.4500         9
  26.5000         5
  26.5500        10
  26.6000         7
  26.6500        11
  26.7000        10
  26.7500        11
  26.8000         8
  26.8500        11
  26.9000         8
  26.9500        10
  27.0000        10
  27.0500         6
  27.1000         7
  27.1500        11
  27.2000         9
  27.2500         7
  27.3000         9
  27.3500         6
  27.4000         7
  27.4500         8
  27.5000        11
  27.5500        10
  27.6000        10
  27.6500        13
  27.7000         9
  27.7500         9
  27.8000         8
  27.8500         8
  27.9000        10
  27.9500         2
  28.0000         6
  28.0500         7
  28.1000         5
  28.1500         7
  28.2000        12
  28.2500         9
  28.3000         8
  28.3500         9
  28.4000         8
  28.4500         8
  28.5000        14
  28.5500        11
  28.6000        12
  28.6500         9
  28.7000        10
  28.7500        10
  28.8000         5
  28.8500         6
  28.9000        13
  28.9500         6
  29.0000        14
  29.0500         3
  29.1000        10
  29.1500        10
  29.2000         8
  29.2500         9
  29.3000         8
  29.3500         9
  29.4000         8
  29.4500        11
  29.5000         6
  29.5500         4
  29.6000        12
  29.6500         5
  29.7000         2
  29.7500         3
  29.8000        11
  29.8500        12
  29.9000         9
  29.9500        12
  30.0000         7
  30.0500         8
  30.1000         5
  30.1500        10
  30.2000         9
  30.2500         4
  30.3000         9
  30.3500         4
  30.4000         7
  30.4500         7
  30.5000         2
  30.5500         8
  30.6000         7
  30.6500        10
  30.7000         3
  30.7500         6
  30.8000         8
  30.8500         4
  30.9000         9
  30.9500         3
  31.0000         6
  31.0500        11
  31.1000        11
  31.1500         6
  31.2000         9
  31.2500         9
  31.3000         2
  31.3500        10
  31.4000         3
  31.4500         3
  31.5000         7
  31.5500         3
  31.6000         7
  31.6500        11
  31.7000        10
  31.7500         6
  31.8000         2
  31.8500         7
  31.9000         6
  31.9500         8
  32.0000         7
  32.0500         7
  32.1000         6
  32.1500         6
  32.2000         4
  32.2500         7
  32.3000        10
  32.3500         9
  32.4000         5
  32.4500        10
  32.5000         5
  32.5500         4
  32.6000         9
  32.6500         7
  32.7000         9
  32.7500         7
  32.8000         8
  32.8500        11
  32.9000         6
  32.9500         7
  33.0000         9
  33.0500         7
  33.1000         2
  33.1500         7
  33.2000         5
  33.2500         5
  33.3000         6
  33.3500         5
  33.4000         8
  33.4500         9
  33.5000         6
  33.5500         5
  33.6000         6
  33.6500         6
  33.7000         9
  33.7500         7
  33.8000         7
  33.8500        12
  33.9000         7
  33.9500         4
  34.0000         7
  34.0500         4
  34.1000         8
  34.1500         7
  34.2000         2
  34.2500         6
  34.3000         7
  34.3500        10
  34.4000        12
  34.4500         5
  34.5000         6
  34.5500         6
  34.6000         4
  34.6500         6
  34.7000         8
  34.7500         8
  34.8000         6
  34.8500         3
  34.9000         5
  34.9500         4
  35.0000        11
  35.0500         8
  35.1000         5
  35.1500         7
  35.2000         8
  35.2500         7
  35.3000         1
  35.3500         4
  35.4000         7
  35.4500         6
  35.5000         8
  35.5500         9
  35.6000        10
  35.6500         6
  35.7000         9
  35.7500         3
  35.8000         5
  35.8500         5
  35.9000         7
  35.9500         3
  36.0000         2
  36.0500         9
  36.1000         9
  36.1500         7
  36.2000         9
  36.2500         8
  36.3000         5
  36.3500         1
  36.4000         5
  36.4500         2
  36.5000        12
  36.5500         4
  36.6000         5
  36.6500         6
  36.7000         8
  36.7500         4
  36.8000         6
  36.8500         4
  36.9000         6
  36.9500         1
  37.0000         6
  37.0500         3
  37.1000         5
  37.1500         4
  37.2000         4
  37.2500         3
  37.3000         4
  37.3500         5
  37.4000         2
  37.4500         7
  37.5000         5
  37.5500         8
  37.6000        11
  37.6500         4
  37.7000         7
  37.7500         6
  37.8000         1
  37.8500        13
  37.9000         5
  37.9500         2
  38.0000         3
  38.0500        10
  38.1000         2
  38.1500         7
  38.2000         4
  38.2500        11
  38.3000         3
  38.3500         4
  38.4000         9
  38.4500         9
  38.5000         4
  38.5500         6
  38.6000         6
  38.6500         9
  38.7000        12
  38.7500         6
  38.8000         5
  38.8500         4
  38.9000         6
  38.9500         6
  39.0000         4
  39.0500         4
  39.1000         5
  39.1500         5
  39.2000         4
  39.2500         4
  39.3000         5
  39.3500         6
  39.4000         7
  39.4500         6
  39.5000         4
  39.5500         8
  39.6000         7
  39.6500         5
  39.7000         2
  39.7500         8
  39.8000         6
  39.8500         4
  39.9000         8
  39.9500         3
  40.0000         2
  40.0500         3
  40.1000         4
  40.1500         5
  40.2000        11
  40.2500         6
  40.3000         7
  40.3500        11
  40.4000        13
  40.4500         6
  40.5000         8
  40.5500         7
  40.6000         5
  40.6500        11
  40.7000         4
  40.7500         3
  40.8000        11
  40.8500         4
  40.9000        10
  40.9500         9
  41.0000         7
  41.0500        10
  41.1000         5
  41.1500        11
  41.2000         9
  41.2500         6
  41.3000         7
  41.3500        10
  41.4000        13
  41.4500        22
  41.5000        12
  41.5500        45
  41.6000        93
  41.6500       179
  41.7000       302
  41.7500       341
  41.8000       357
  41.8500       250
  41.9000       155
  41.9500        85
  42.0000        33
  42.0500        17
  42.1000        11
  42.1500         6
  42.2000         8
  42.2500        15
  42.3000         5
  42.3500         6
  42.4000         7
  42.4500         8
  42.5000         5
  42.5500         4
  42.6000         2
  42.6500         5
  42.7000         7
  42.7500         5
  42.8000         4
  42.8500         2
  42.9000         7
  42.9500         0
  43.0000         8
  43.0500         4
  43.1000         5
  43.1500         3
  43.2000         4
  43.2500         7
  43.3000         8
  43.3500         3
  43.4000         3
  43.4500         1
  43.5000         4
  43.5500         5
  43.6000         4
  43.6500         7
  43.7000         3
  43.7500         4
  43.8000         4
  43.8500         3
  43.9000         6
  43.9500         6
  44.0000         9
  44.0500         4
  44.1000         6
  44.1500         6
  44.2000         8
  44.2500         4
  44.3000         7
  44.3500         6
  44.4000         3
  44.4500         3
  44.5000         5
  44.5500         2
  44.6000         5
  44.6500         4
  44.7000         5
  44.7500         4
  44.8000         9
  44.8500         6
  44.9000         6
  44.9500         4
  45.0000         4
  45.0500         8
  45.1000         8
  45.1500         9
  45.2000         3
  45.2500         2
  45.3000         2
  45.3500         6
  45.4000         4
  45.4500         5
  45.5000         4
  45.5500         4
  45.6000         7
  45.6500         3
  45.7000         8
  45.7500         3
  45.8000         2
  45.8500         8
  45.9000         3
  45.9500         6
  46.0000         4
  46.0500         0
  46.1000         7
  46.1500         1
  46.2000         4
  46.2500         5
  46.3000         8
  46.3500         2
  46.4000         5
  46.4500         1
  46.5000         4
  46.5500         7
  46.6000         1
  46.6500         5
  46.7000         5
  46.7500         3
  46.8000         3
  46.8500         2
  46.9000         4
  46.9500         5
  47.0000         2
  47.0500        10
  47.1000         7
  47.1500         5
  47.2000         5
  47.2500         7
  47.3000         3
  47.3500         4
  47.4000        10
  47.4500         6
  47.5000         7
  47.5500         7
  47.6000         4
  47.6500         3
  47.7000         6
  47.7500         4
  47.8000         6
  47.8500         4
  47.9000         6
  47.9500         6
  48.0000         1
  48.0500         8
  48.1000         6
  48.1500         8
  48.2000         6
  48.2500        10
  48.3000        18
  48.3500        15
  48.4000        44
  48.4500        69
  48.5000        98
  48.5500       169
  48.6000       179
  48.6500       141
  48.7000       107
  48.7500        74
  48.8000        49
  48.8500        20
  48.9000         6
  48.9500         4
  49.0000         5
  49.0500         9
  49.1000         5
  49.1500         3
  49.2000         7
  49.2500         6
  49.3000         5
  49.3500         7
  49.4000         7
  49.4500         5
  49.5000         3
  49.5500         3
  49.6000         4
  49.6500         6
  49.7000         3
  49.7500         3
  49.8000         4
  49.8500         3
  49.9000         0
  49.9500         4
  50.0000         5
  50.0500         3
  50.1000         5
  50.1500         4
  50.2000         3
  50.2500         5
  50.3000         3
  50.3500         1
  50.4000        10
  50.4500         3
  50.5000         2
  50.5500         7
  50.6000         7
  50.6500         5
  50.7000         5
  50.7500         2
  50.8000         6
  50.8500         1
  50.9000         3
  50.9500         5
  51.0000         1
  51.0500         5
  51.1000         3
  51.1500         4
  51.2000         4
  51.2500         5
  51.3000         5
  51.3500         1
  51.4000         4
  51.4500         3
  51.5000         5
  51.5500         4
  51.6000         3
  51.6500         3
  51.7000         4
  51.7500         2
  51.8000         2
  51.8500         4
  51.9000         2
  51.9500         3
  52.0000         4
  52.0500         7
  52.1000         5
  52.1500         3
  52.2000         3
  52.2500         7
  52.3000         6
  52.3500         2
  52.4000         1
  52.4500         4
  52.5000         4
  52.5500         3
  52.6000         4
  52.6500         2
  52.7000         3
  52.7500         7
  52.8000         4
  52.8500         3
  52.9000         4
  52.9500         7
  53.0000         8
  53.0500         2
  53.1000         3
  53.1500         5
  53.2000         6
  53.2500         1
  53.3000         5
  53.3500         3
  53.4000         6
  53.4500         3
  53.5000         2
  53.5500         5
  53.6000         4
  53.6500         2
  53.7000         1
  53.7500         1
  53.8000         4
  53.8500         2
  53.9000         6
  53.9500         8
  54.0000         6
  54.0500         4
  54.1000         2
  54.1500         1
  54.2000         4
  54.2500         5
  54.3000         0
  54.3500         6
  54.4000         0
  54.4500         6
  54.5000        12
  54.5500         3
  54.6000         1
  54.6500         2
  54.7000         3
  54.7500         1
  54.8000         6
  54.8500         5
  54.9000         4
  54.9500         2
  55.0000         4
  55.0500         9
  55.1000         6
  55.1500         5
  55.2000         5
  55.2500         4
  55.3000         8
  55.3500         6
  55.4000         3
  55.4500         3
  55.5000         7
  55.5500         4
  55.6000         5
  55.6500         4
  55.7000         7
  55.7500         4
  55.8000         3
  55.8500         3
  55.9000         7
  55.9500         4
  56.0000         7
  56.0500         5
  56.1000         0
  56.1500         6
  56.2000         2
  56.2500         4
  56.3000         6
  56.3500         2
  56.4000         3
  56.4500         4
  56.5000         4
  56.5500         4
  56.6000         8
  56.6500         5
  56.7000         4
  56.7500         4
  56.8000         6
  56.8500         5
  56.9000         5
  56.9500         8
  57.0000         6
  57.0500         6
  57.1000         3
  57.1500         7
  57.2000         3
  57.2500         2
  57.3000         3
  57.3500         3
  57.4000         1
  57.4500         5
  57.5000         4
  57.5500         3
  57.6000         4
  57.6500         2
  57.7000         5
  57.7500         3
  57.8000         4
  57.8500         3
  57.9000         3
  57.9500         6
  58.0000         3
  58.0500         7
  58.1000         9
  58.1500         4
  58.2000         4
  58.2500         3
  58.3000         5
  58.3500         1
  58.4000         3
  58.4500         4
  58.5000         1
  58.5500         7
  58.6000         3
  58.6500         5
  58.7000         3
  58.7500         2
  58.8000         7
  58.8500         4
  58.9000         4
  58.9500         1
  59.0000         9
  59.0500         3
  59.1000         5
  59.1500         6
  59.2000         1
  59.2500         4
  59.3000         1
  59.3500         6
  59.4000         5
  59.4500         6
  59.5000        10
  59.5500         4
  59.6000         5
  59.6500         4
  59.7000         2
  59.7500         3
  59.8000         4
  59.8500         3
  59.9000         4
  59.9500         3
  60.0000         3
  60.0500         3
  60.1000         3
  60.1500         3
  60.2000        10
  60.2500         1
  60.3000         3
  60.3500         3
  60.4000         3
  60.4500         4
  60.5000         9
  60.5500         0
  60.6000         2
  60.6500         3
  60.7000         6
  60.7500         3
  60.8000         3
  60.8500         4
  60.9000         5
  60.9500         7
  61.0000         2
  61.0500         3
  61.1000         3
  61.1500         5
  61.2000         5
  61.2500         4
  61.3000         5
  61.3500         7
  61.4000         8
  61.4500         3
  61.5000         6
  61.5500         6
  61.6000         4
  61.6500         2
  61.7000         4
  61.7500         7
  61.8000         4
  61.8500         5
  61.9000         4
  61.9500         6
  62.0000         8
  62.0500         6
  62.1000         3
  62.1500         6
  62.2000         5
  62.2500         6
  62.3000         5
  62.3500         5
  62.4000         0
  62.4500         2
  62.5000         3
  62.5500         3
  62.6000         6
  62.6500         5
  62.7000         5
  62.7500         6
  62.8000         3
  62.8500         5
  62.9000         6
  62.9500         1
  63.0000         2
  63.0500         3
  63.1000         2
  63.1500         3
  63.2000         6
  63.2500         7
  63.3000         3
  63.3500         4
  63.4000         2
  63.4500         6
  63.5000         5
  63.5500         5
  63.6000         4
  63.6500         2
  63.7000         5
  63.7500         9
  63.8000         3
  63.8500         8
  63.9000         3
  63.9500         2
  64.0000         9
  64.0500         7
  64.1000         2
  64.1500         1
  64.2000         5
  64.2500         1
  64.3000         3
  64.3500         5
  64.4000         3
  64.4500         6
  64.5000         1
  64.5500         5
  64.6000         4
  64.6500         5
  64.7000         2
  64.7500         6
  64.8000         6
  64.8500         4
  64.9000         4
  64.9500         2
  65.0000         6
  65.0500         2
  65.1000         5
  65.1500         4
  65.2000         2
  65.2500         6
  65.3000         5
  65.3500         9
  65.4000         5
  65.4500         2
  65.5000         4
  65.5500         3
  65.6000         6
  65.6500         6
  65.7000         6
  65.7500         3
  65.8000         4
  65.8500         4
  65.9000         5
  65.9500         4
  66.0000         4
  66.0500         5
  66.1000         4
  66.1500         4
  66.2000         3
  66.2500         2
  66.3000         2
  66.3500         2
  66.4000         4
  66.4500         0
  66.5000         4
  66.5500         4
  66.6000         4
  66.6500         8
  66.7000         6
  66.7500         8
  66.8000         3
  66.8500         5
  66.9000         2
  66.9500         2
  67.0000         7
  67.0500         5
  67.1000         5
  67.1500         4
  67.2000         2
  67.2500         4
  67.3000         6
  67.3500         6
  67.4000         4
  67.4500         3
  67.5000         2
  67.5500         4
  67.6000         7
  67.6500         2
  67.7000         2
  67.7500         5
  67.8000         5
  67.8500         4
  67.9000         0
  67.9500         2
  68.0000         3
  68.0500         4
  68.1000        10
  68.1500         3
  68.2000         8
  68.2500         8
  68.3000         2
  68.3500         2
  68.4000         6
  68.4500         4
  68.5000         4
  68.5500         2
  68.6000         6
  68.6500         3
  68.7000         6
  68.7500         2
  68.8000         7
  68.8500         7
  68.9000         3
  68.9500         5
  69.0000         7
  69.0500         3
  69.1000         6
  69.1500         3
  69.2000         5
  69.2500         3
  69.3000         2
  69.3500         8
  69.4000         8
  69.4500         6
  69.5000         3
  69.5500         5
  69.6000         3
  69.6500         6
  69.7000         4
  69.7500         6
  69.8000         2
  69.8500         4
  69.9000         3
  69.9500         3
  70.0000         5
  70.0500         4
  70.1000         1
  70.1500         3
  70.2000         6
  70.2500         3
  70.3000         5
  70.3500         5
  70.4000         4
  70.4500         6
  70.5000         0
  70.5500         8
  70.6000         7
  70.6500         8
  70.7000        13
  70.7500         6
  70.8000         7
  70.8500        13
  70.9000        23
  70.9500        56
  71.0000        84
  71.0500       100
  71.1000        99
  71.1500        71
  71.2000        74
  71.2500        50
  71.3000        53
  71.3500        35
  71.4000        15
  71.4500        10
  71.5000         4
  71.5500         9
  71.6000         4
  71.6500         7
  71.7000         9
  71.7500         3
  71.8000         5
  71.8500         4
  71.9000         1
  71.9500         1
  72.0000         5
  72.0500         3
  72.1000         5
  72.1500         4
  72.2000         4
  72.2500         4
  72.3000         4
  72.3500         2
  72.4000         6
  72.4500         7
  72.5000         4
  72.5500         5
  72.6000         2
  72.6500         6
  72.7000         3
  72.7500         8
  72.8000         3
  72.8500         2
  72.9000         4
  72.9500         3
  73.0000         2
  73.0500         5
  73.1000         2
  73.1500         2
  73.2000         1
  73.2500         6
  73.3000         8
  73.3500         2
  73.4000         3
  73.4500         4
  73.5000         5
  73.5500         5
  73.6000         5
  73.6500         5
  73.7000         4
  73.7500         2
  73.8000         5
  73.8500         4
  73.9000         3
  73.9500         3
  74.0000         5
  74.0500         6
  74.1000         4
  74.1500         1
  74.2000         4
  74.2500         2
  74.3000         3
  74.3500         2
  74.4000         4
  74.4500         5
  74.5000         4
  74.5500         5
  74.6000         5
  74.6500         2
  74.7000         6
  74.7500         5
  74.8000         4
  74.8500         2
  74.9000         1
  74.9500         4
  75.0000         3
  75.0500         4
  75.1000         4
  75.1500         3
  75.2000         4
  75.2500         3
  75.3000         4
  75.3500         0
  75.4000         7
  75.4500         5
  75.5000         4
  75.5500         2
  75.6000         4
  75.6500         2
  75.7000         1
  75.7500         3
  75.8000         2
  75.8500         4
  75.9000         4
  75.9500         3
  76.0000         1
  76.0500         1
  76.1000         4
  76.1500         5
  76.2000         5
  76.2500         3
  76.3000         0
  76.3500         7
  76.4000         4
  76.4500         9
  76.5000         4
  76.5500         4
  76.6000         2
  76.6500         4
  76.7000         1
  76.7500         1
  76.8000         6
  76.8500         8
  76.9000         0
  76.9500         2
  77.0000         2
  77.0500         2
  77.1000         7
  77.1500         2
  77.2000         5
  77.2500         4
  77.3000         3
  77.3500         4
  77.4000         5
  77.4500         6
  77.5000         1
  77.5500         3
  77.6000         3
  77.6500         3
  77.7000         3
  77.7500         5
  77.8000         3
  77.8500         1
  77.9000         6
  77.9500         3
  78.0000         4
  78.0500         2
  78.1000         3
  78.1500         0
  78.2000         7
  78.2500         6
  78.3000         3
  78.3500         2
  78.4000         3
  78.4500         4
  78.5000         1
  78.5500         1
  78.6000         4
  78.6500         3
  78.7000         4
  78.7500         3
  78.8000         4
  78.8500         2
  78.9000         5
  78.9500         5
  79.0000         4
  79.0500         2
  79.1000         6
  79.1500         3
  79.2000         3
  79.2500         2
  79.3000         3
  79.3500         6
  79.4000         4
  79.4500         3
  79.5000         5
  79.5500         5
  79.6000         4
  79.6500         5
  79.7000         2
  79.7500         2
  79.8000         4
  79.8500         3
  79.9000         2
  79.9500         1
  80.0000         2
  80.0500         3
  80.1000         2
  80.1500         4
  80.2000         4
  80.2500         1
  80.3000         4
  80.3500         6
  80.4000         4
  80.4500         1
  80.5000         2
  80.5500         1
  80.6000         4
  80.6500         4
  80.7000         3
  80.7500         5
  80.8000         3
  80.8500         5
  80.9000         4
  80.9500         6
  81.0000         4
  81.0500         4
  81.1000         4
  81.1500         3
  81.2000         1
  81.2500         4
  81.3000         2
  81.3500         2
  81.4000         3
  81.4500         2
  81.5000         6
  81.5500         3
  81.6000         1
  81.6500         5
  81.7000         3
  81.7500         3
  81.8000         2
  81.8500         3
  81.9000         6
  81.9500         3
  82.0000         1
  82.0500         5
  82.1000         7
  82.1500         3
  82.2000         4
  82.2500         3
  82.3000         8
  82.3500         2
  82.4000         1
  82.4500         1
  82.5000         1
  82.5500         5
  82.6000         5
  82.6500         7
  82.7000         3
  82.7500         4
  82.8000         2
  82.8500         5
  82.9000         5
  82.9500         2
  83.0000         7
  83.0500         8
  83.1000         3
  83.1500         2
  83.2000         4
  83.2500         1
  83.3000         4
  83.3500         5
  83.4000         4
  83.4500         4
  83.5000         4
  83.5500         6
  83.6000         5
  83.6500         0
  83.7000         3
  83.7500         3
  83.8000         2
  83.8500         2
  83.9000         6
  83.9500         4
  84.0000         3
  84.0500         4
  84.1000         1
  84.1500         3
  84.2000         4
  84.2500         3
  84.3000         6
  84.3500         2
  84.4000         6
  84.4500         5
  84.5000         5
  84.5500         4
  84.6000         3
  84.6500         5
  84.7000         3
  84.7500         6
  84.8000         6
  84.8500         2
  84.9000         0
  84.9500         5
  85.0000         6
  85.0500         5
  85.1000         2
  85.1500         3
  85.2000         9
  85.2500         6
  85.3000         5
  85.3500         8
  85.4000         9
  85.4500         3
  85.5000         3
  85.5500         8
  85.6000         4
  85.6500        18
  85.7000        23
  85.7500        72
  85.8000        79
  85.8500       118
  85.9000       109
  85.9500        79
  86.0000        78
  86.0500        66
  86.1000        47
  86.1500        55
  86.2000        51
  86.2500        26
  86.3000        19
  86.3500        15
  86.4000        10
  86.4500         9
  86.5000         8
  86.5500         6
  86.6000         2
  86.6500         1
  86.7000         7
  86.7500         1
  86.8000         4
  86.8500         5
  86.9000         4
  86.9500         6
  87.0000         3
  87.0500         4
  87.1000         1
  87.1500         3
  87.2000         6
  87.2500         2
  87.3000         6
  87.3500         2
  87.4000         0
  87.4500         3
  87.5000         2
  87.5500         5
  87.6000         4
  87.6500         2
  87.7000         5
  87.7500         5
  87.8000         7
  87.8500         3
  87.9000         4
  87.9500         0
  88.0000         1
  88.0500         3
  88.1000         2
  88.1500         3
  88.2000         3
  88.2500         3
  88.3000         4
  88.3500         5
  88.4000         3
  88.4500         2
  88.5000         3
  88.5500         2
  88.6000         3
  88.6500         1
  88.7000         6
  88.7500         3
  88.8000         2
  88.8500         3
  88.9000         2
  88.9500         3
  89.0000         3
  89.0500         7
  89.1000         5
  89.1500         7
  89.2000         5
  89.2500         8
  89.3000         2
  89.3500         3
  89.4000         4
  89.4500         4
  89.5000         4
  89.5500         2
  89.6000         5
  89.6500         2
  89.7000         2
  89.7500         2
  89.8000         2
  89.8500         1
  89.9000         6
  89.9500         3
  90.0000         5
  90.0500         6
  90.1000         4
  90.1500         3
  90.2000         3
  90.2500         6
  90.3000         6
  90.3500         6
  90.4000         2
  90.4500         5
  90.5000        10
  90.5500        11
  90.6000        20
  90.6500        27
  90.7000        39
  90.7500        34
  90.8000        34
  90.8500        21
  90.9000        19
  90.9500        23
  91.0000        10
  91.0500        16
  91.1000        10
  91.1500         8
  91.2000         7
  91.2500         8
  91.3000         0
  91.3500         0
  91.4000         7
  91.4500         2
  91.5000         4
  91.5500         5
  91.6000         4
  91.6500         1
  91.7000         4
  91.7500         2
  91.8000         7
  91.8500         5
  91.9000         4
  91.9500         2
  92.0000         6
  92.0500         5
  92.1000         0
  92.1500         1
  92.2000         2
  92.2500         3
  92.3000         2
  92.3500         2
  92.4000         3
  92.4500         4
  92.5000         2
  92.5500         3
  92.6000         3
  92.6500         2
  92.7000         5
  92.7500         5
  92.8000         1
  92.8500         2
  92.9000         3
  92.9500         3
  93.0000         9
  93.0500         3
  93.1000         4
  93.1500         3
  93.2000         4
  93.2500         8
  93.3000         2
  93.3500         2
  93.4000         5
  93.4500         2
  93.5000         1
  93.5500         3
  93.6000         4
  93.6500         4
  93.7000         6
  93.7500         2
  93.8000         2
  93.8500         6
  93.9000         7
  93.9500         3
  94.0000         2
  94.0500         5
  94.1000         1
  94.1500         5
  94.2000         1
  94.2500         4
  94.3000         5
  94.3500         1
  94.4000         2
  94.4500         6
  94.5000         3
  94.5500         2
  94.6000         4
  94.6500         0
  94.7000         2
  94.7500         1
  94.8000         1
  94.8500         1
  94.9000         2
  94.9500         4
  95.0000         2
  95.0500         3
  95.1000         2
  95.1500         6
  95.2000         3
  95.2500         4
  95.3000         4
  95.3500         1
  95.4000         0
  95.4500         1
  95.5000         5
  95.5500         2
  95.6000         6
  95.6500         4
  95.7000         6
  95.7500         4
  95.8000         1
  95.8500         3
  95.9000         1
  95.9500         3
  96.0000         7
  96.0500         2
  96.1000         4
  96.1500         1
  96.2000         2
  96.2500         1
  96.3000         6
  96.3500         2
  96.4000         3
  96.4500         2
  96.5000         3
  96.5500         4
  96.6000         2
  96.6500         3
  96.7000         1
  96.7500         1
  96.8000         3
  96.8500         1
  96.9000         5
  96.9500         4
  97.0000         5
  97.0500         4
  97.1000         4
  97.1500         2
  97.2000         4
  97.2500         7
  97.3000         4
  97.3500         1
  97.4000         2
  97.4500         3
  97.5000         6
  97.5500         2
  97.6000         1
  97.6500         1
  97.7000         7
  97.7500         1
  97.8000         2
  97.8500         3
  97.9000         1
  97.9500         2
  98.0000         3
  98.0500         3
  98.1000         6
  98.1500         3
  98.2000         1
  98.2500         4
  98.3000         5
  98.3500         3
  98.4000         3
  98.4500         4
  98.5000         4
  98.5500         5
  98.6000         3
  98.6500         5
  98.7000         3
  98.7500         0
  98.8000         4
  98.8500         9
  98.9000         5
  98.9500         2
  99.0000         6
  99.0500         8
  99.1000         2
  99.1500         3
  99.2000         2
  99.2500         2
  99.3000         0
  99.3500         4
  99.4000         7
  99.4500         4
  99.5000         1
  99.5500         4
  99.6000         3
  99.6500         0
  99.7000         2
  99.7500         0
  99.8000         2
  99.8500         6
  99.9000         1
  99.9500         2
 100.0000         6
 100.0500         3
 100.1000         3
 100.1500         3
 100.2000         1
 100.2500         2
 100.3000         3
 100.3500         3
 100.4000         5
 100.4500         3
 100.5000         8
 100.5500         6
 100.6000         1
 100.6500         2
 100.7000         3
 100.7500         2
 100.8000         3
 100.8500         2
 100.9000         3
 100.9500         1
 101.0000         3
 101.0500         6
 101.1000         4
 101.1500         4
 101.2000         2
 101.2500         2
 101.3000         1
 101.3500         1
 101.4000         4
 101.4500         2
 101.5000         3
 101.5500         1
 101.6000         1
 101.6500         3
 101.7000         2
 101.7500         4
 101.8000         3
 101.8500         5
 101.9000         7
 101.9500         4
 102.0000         2
 102.0500         3
 102.1000         1
 102.1500         2
 102.2000         3
 102.2500         6
 102.3000         5
 102.3500         2
 102.4000         1
 102.4500         0
 102.5000         6
 102.5500         5
 102.6000         3
 102.6500         6
 102.7000         5
 102.7500         1
 102.8000         3
 102.8500         5
 102.9000         1
 102.9500         5
 103.0000         1
 103.0500         3
 103.1000         4
 103.1500         1
 103.2000         6
 103.2500         2
 103.3000         2
 103.3500         1
 103.4000         6
 103.4500         4
 103.5000         6
 103.5500         6
 103.6000         4
 103.6500         3
 103.7000         3
 103.7500         2
 103.8000         5
 103.8500         2
 103.9000         7
 103.9500         1
 104.0000         5
 104.0500         6
 104.1000         5
 104.1500         7
 104.2000         1
 104.2500         3
 104.3000         1
 104.3500         4
 104.4000         6
 104.4500         5
 104.5000         3
 104.5500         2
 104.6000         2
 104.6500         3
 104.7000         2
 104.7500         2
 104.8000         2
 104.8500         3
 104.9000         5
 104.9500         1
 105.0000         5
 105.0500         3
 105.1000         3
 105.1500         2
 105.2000         3
 105.2500         3
 105.3000         2
 105.3500         4
 105.4000         3
 105.4500         3
 105.5000         1
 105.5500         3
 105.6000         7
 105.6500         1
 105.7000         4
 105.7500         3
 105.8000         4
 105.8500         2
 105.9000         3
 105.9500         2
 106.0000         6
 106.0500         1
 106.1000         2
 106.1500         3
 106.2000         2
 106.2500         3
 106.3000         3
 106.3500         4
 106.4000         6
 106.4500         4
 106.5000         0
 106.5500         4
 106.6000         3
 106.6500         3
 106.7000         3
 106.7500         2
 106.8000         5
 106.8500         1
 106.9000         1
 106.9500         4
 107.0000         2
 107.0500         4
 107.1000         4
 107.1500         2
 107.2000         1
 107.2500         2
 107.3000         2
 107.3500         5
 107.4000         3
 107.4500         5
 107.5000         2
 107.5500         2
 107.6000         2
 107.6500         2
 107.7000         3
 107.7500         2
 107.8000         2
 107.8500         0
 107.9000         3
 107.9500         3
 108.0000         2
 108.0500         3
 108.1000         5
 108.1500         3
 108.2000         2
 108.2500         5
 108.3000         6
 108.3500         3
 108.4000         2
 108.4500         3
 108.5000         5
 108.5500         5
 108.6000         5
 108.6500         2
 108.7000         4
 108.7500         2
 108.8000         5
 108.8500         4
 108.9000         8
 108.9500         4
 109.0000         2
 109.0500         3
 109.1000         3
 109.1500         1
 109.2000         2
 109.2500         2
 109.3000         4
 109.3500         3
 109.4000         3
 109.4500         5
 109.5000         2
 109.5500         0
 109.6000         8
 109.6500         4
 109.7000         2
 109.7500         3
 109.8000         4
 109.8500         3
 109.9000         3
 109.9500         2
 110.0000         2
