  20.0000        12
  20.0500        13
  20.1000        12
  20.1500         9
  20.2000         9
  20.2500         4
  20.3000         5
  20.3500         6
  20.4000        13
  20.4500         6
  20.5000         9
  20.5500         8
  20.6000         7
  20.6500        10
  20.7000         8
  20.7500         8
  20.8000        10
  20.8500         8
  20.9000        11
  20.9500         9
  21.0000         7
  21.0500        10
  21.1000        11
  21.1500        14
  21.2000        10
  21.2500         6
  21.3000         2
  21.3500        14
  21.4000        12
  21.4500         7
  21.5000         9
  21.5500        12
  21.6000        10
  21.6500        11
  21.7000         4
  21.7500        13
  21.8000         7
  21.8500         7
  21.9000        10
  21.9500         5
  22.0000         9
  22.0500         4
  22.1000         7
  22.1500        14
  22.2000         8
  22.2500        11
  22.3000         9
  22.3500        11
  22.4000         8
  22.4500         4
  22.5000         2
  22.5500         6
  22.6000        12
  22.6500         7
  22.7000         7
  22.7500        10
  22.8000         7
  22.8500         7
  22.9000         8
  22.9500        10
  23.0000         6
  23.0500         8
  23.1000         5
  23.1500        11
  23.2000        10
  23.2500        14
  23.3000         8
  23.3500         8
  23.4000         8
  23.4500         3
  23.5000        10
  23.5500        11
  23.6000        10
  23.6500         9
  23.7000        10
  23.7500         7
  23.8000        15
  23.8500         6
  23.9000         8
  23.9500        15
  24.0000         7
  24.0500         6
  24.1000        10
  24.1500         5
  24.2000         9
  24.2500         9
  24.3000        13
  24.3500         5
  24.4000         7
  24.4500        10
  24.5000         5
  24.5500        13
  24.6000         4
  24.6500        10
  24.7000         7
  24.7500        10
  24.8000        12
  24.8500        10
  24.9000         6
  24.9500        15
  25.0000        11
  25.0500         3
  25.1000        10
  25.1500         7
  25.2000         8
  25.2500        11
  25.3000        11
  25.3500         9
  25.4000        17
  25.4500         6
  25.5000         8
  25.5500         7
  25.6000        15
  25.6500        10
  25.7000         9
  25.7500         7
  25.8000        10
  25.8500        12
  25.9000        10
  25.9500        10
  26.0000         6
  26.0500         4
  26.1000         9
  26.1500        11
  26.2000         7
  26.2500         6
  26.3000        10
  26.3500         8
  26.4000        11
  26.4500         7
  26.5000         6
  26.5500         9
  26.6000         8
  26.6500        14
  26.7000        10
  26.7500        14
  26.8000         8
  26.8500         7
  26.9000         1
  26.9500         8
  27.0000         8
  27.0500         5
  27.1000        12
  27.1500         4
  27.2000        12
  27.2500        10
  27.3000         7
  27.3500        13
  27.4000         5
  27.4500         9
  27.5000        14
  27.5500        12
  27.6000         8
  27.6500         5
  27.7000        10
  27.7500        12
  27.8000         6
  27.8500         8
  27.9000        12
  27.9500         6
  28.0000         7
  28.0500         9
  28.1000        10
  28.1500         7
  28.2000         6
  28.2500         9
  28.3000         7
  28.3500         4
  28.4000        10
  28.4500        11
  28.5000        13
  28.5500         4
  28.6000         5
  28.6500         9
  28.7000        13
  28.7500        14
  28.8000         5
  28.8500        17
  28.9000         7
  28.9500        13
  29.0000         9
  29.0500         9
  29.1000        11
  29.1500         2
  29.2000        13
  29.2500         8
  29.3000         9
  29.3500        18
  29.4000         6
  29.4500        11
  29.5000        11
  29.5500        10
  29.6000         5
  29.6500        12
  29.7000         9
  29.7500         8
  29.8000        13
  29.8500        11
  29.9000         4
  29.9500         9
  30.0000         5
  30.0500         5
  30.1000         9
  30.1500         7
  30.2000        12
  30.2500        13
  30.3000         6
  30.3500         3
  30.4000        16
  30.4500        12
  30.5000         8
  30.5500        10
  30.6000        11
  30.6500        12
  30.7000        11
  30.7500         8
  30.8000         4
  30.8500        10
  30.9000         5
  30.9500         9
  31.0000         9
  31.0500         9
  31.1000         6
  31.1500        11
  31.2000        14
  31.2500         5
  31.3000         9
  31.3500         9
  31.4000         9
  31.4500         9
  31.5000         9
  31.5500         9
  31.6000         9
  31.6500         8
  31.7000        11
  31.7500         6
  31.8000        10
  31.8500         5
  31.9000         8
  31.9500        10
  32.0000         9
  32.0500        14
  32.1000         8
  32.1500         9
  32.2000        16
  32.2500         9
  32.3000         6
  32.3500         8
  32.4000         7
  32.4500        13
  32.5000        10
  32.5500        13
  32.6000        16
  32.6500        10
  32.7000        11
  32.7500        13
  32.8000         6
  32.8500        12
  32.9000        10
  32.9500        11
  33.0000         9
  33.0500        13
  33.1000         9
  33.1500        10
  33.2000         4
  33.2500         6
  33.3000         8
  33.3500        10
  33.4000        10
  33.4500         9
  33.5000        11
  33.5500        13
  33.6000        15
  33.6500         6
  33.7000        13
  33.7500        14
  33.8000         8
  33.8500         8
  33.9000        10
  33.9500        10
  34.0000         8
  34.0500        10
  34.1000         8
  34.1500        11
  34.2000        11
  34.2500        13
  34.3000        10
  34.3500        10
  34.4000         6
  34.4500         8
  34.5000         9
  34.5500         7
  34.6000         5
  34.6500         8
  34.7000         9
  34.7500        13
  34.8000         8
  34.8500        14
  34.9000         9
  34.9500         7
  35.0000        17
  35.0500         7
  35.1000         8
  35.1500        14
  35.2000        15
  35.2500        14
  35.3000        16
  35.3500        10
  35.4000        10
  35.4500        11
  35.5000         9
  35.5500        11
  35.6000        11
  35.6500         7
  35.7000        10
  35.7500        12
  35.8000        11
  35.8500        12
  35.9000         9
  35.9500         6
  36.0000        15
  36.0500        14
  36.1000         7
  36.1500        11
  36.2000        15
  36.2500         4
  36.3000        10
  36.3500         8
  36.4000        10
  36.4500         8
  36.5000         8
  36.5500         8
  36.6000         9
  36.6500         6
  36.7000        11
  36.7500        12
  36.8000        15
  36.8500         7
  36.9000        13
  36.9500         7
  37.0000         7
  37.0500         8
  37.1000        10
  37.1500        12
  37.2000        10
  37.2500         9
  37.3000        14
  37.3500         8
  37.4000        10
  37.4500        11
  37.5000        10
  37.5500         8
  37.6000        14
  37.6500        12
  37.7000         8
  37.7500        15
  37.8000        11
  37.8500        10
  37.9000        10
  37.9500        14
  38.0000        16
  38.0500        11
  38.1000        13
  38.1500        12
  38.2000         8
  38.2500        11
  38.3000         9
  38.3500         8
  38.4000        10
  38.4500         8
  38.5000         6
  38.5500         9
  38.6000        13
  38.6500         8
  38.7000         9
  38.7500         7
  38.8000         7
  38.8500         7
  38.9000        13
  38.9500         9
  39.0000        12
  39.0500         9
  39.1000         7
  39.1500         9
  39.2000        10
  39.2500         9
  39.3000        15
  39.3500         6
  39.4000         8
  39.4500        13
  39.5000        11
  39.5500         9
  39.6000        13
  39.6500        17
  39.7000        12
  39.7500        14
  39.8000        14
  39.8500         8
  39.9000        14
  39.9500        10
  40.0000         6
  40.0500        13
  40.1000        13
  40.1500         7
  40.2000        13
  40.2500        12
  40.3000        12
  40.3500        11
  40.4000        14
  40.4500        10
  40.5000         9
  40.5500        16
  40.6000        10
  40.6500         8
  40.7000        10
  40.7500        15
  40.8000         7
  40.8500        17
  40.9000        14
  40.9500        14
  41.0000        12
  41.0500        12
  41.1000        13
  41.1500        12
  41.2000        12
  41.2500         7
  41.3000        10
  41.3500        14
  41.4000        11
  41.4500        11
  41.5000        12
  41.5500        12
  41.6000        15
  41.6500        16
  41.7000        11
  41.7500        12
  41.8000        13
  41.8500        12
  41.9000        10
  41.9500        10
  42.0000         8
  42.0500        10
  42.1000        10
  42.1500        14
  42.2000        12
  42.2500        16
  42.3000        19
  42.3500        19
  42.4000         8
  42.4500        14
  42.5000         4
  42.5500        21
  42.6000        15
  42.6500        18
  42.7000        15
  42.7500        13
  42.8000        19
  42.8500        19
  42.9000        27
  42.9500        14
  43.0000        24
  43.0500        20
  43.1000        19
  43.1500        22
  43.2000        28
  43.2500        28
  43.3000        39
  43.3500        19
  43.4000        31
  43.4500        26
  43.5000        23
  43.5500        36
  43.6000        31
  43.6500        40
  43.7000        34
  43.7500        53
  43.8000        61
  43.8500        75
  43.9000        98
  43.9500       149
  44.0000       223
  44.0500       301
  44.1000       463
  44.1500       635
  44.2000       800
  44.2500       989
  44.3000       889
  44.3500       853
  44.4000       655
  44.4500       498
  44.5000       321
  44.5500       235
  44.6000       123
  44.6500        95
  44.7000        65
  44.7500        48
  44.8000        41
  44.8500        39
  44.9000        39
  44.9500        39
  45.0000        20
  45.0500        21
  45.1000        23
  45.1500        13
  45.2000        25
  45.2500        23
  45.3000        10
  45.3500        32
  45.4000        14
  45.4500        18
  45.5000        20
  45.5500        14
  45.6000        16
  45.6500        12
  45.7000        14
  45.7500        16
  45.8000        15
  45.8500        13
  45.9000        21
  45.9500        10
  46.0000        13
  46.0500        10
  46.1000        15
  46.1500        14
  46.2000        12
  46.2500        15
  46.3000        17
  46.3500        15
  46.4000        10
  46.4500        14
  46.5000        14
  46.5500         5
  46.6000        18
  46.6500         5
  46.7000        12
  46.7500         8
  46.8000         9
  46.8500        11
  46.9000        16
  46.9500        16
  47.0000        10
  47.0500         9
  47.1000         9
  47.1500        13
  47.2000        10
  47.2500        11
  47.3000         8
  47.3500         7
  47.4000        20
  47.4500        16
  47.5000         9
  47.5500        13
  47.6000         8
  47.6500        16
  47.7000        10
  47.7500        10
  47.8000        12
  47.8500        18
  47.9000        16
  47.9500        14
  48.0000        15
  48.0500        17
  48.1000        11
  48.1500        10
  48.2000        10
  48.2500        10
  48.3000        11
  48.3500         7
  48.4000        13
  48.4500         8
  48.5000         7
  48.5500        11
  48.6000        15
  48.6500        10
  48.7000        13
  48.7500         9
  48.8000        11
  48.8500        19
  48.9000        11
  48.9500        11
  49.0000         4
  49.0500         7
  49.1000        12
  49.1500        15
  49.2000        11
  49.2500        11
  49.3000        19
  49.3500        11
  49.4000        14
  49.4500        15
  49.5000        24
  49.5500        13
  49.6000        15
  49.6500        15
  49.7000        10
  49.7500        10
  49.8000         9
  49.8500        13
  49.9000         8
  49.9500        12
  50.0000        11
  50.0500        13
  50.1000        17
  50.1500        20
  50.2000        15
  50.2500        14
  50.3000        12
  50.3500        23
  50.4000        21
  50.4500        14
  50.5000        20
  50.5500        14
  50.6000        20
  50.6500        22
  50.7000        16
  50.7500        21
  50.8000        25
  50.8500        26
  50.9000        32
  50.9500        30
  51.0000        35
  51.0500        58
  51.1000        67
  51.1500        62
  51.2000        85
  51.2500        97
  51.3000       139
  51.3500       180
  51.4000       197
  51.4500       230
  51.5000       290
  51.5500       303
  51.6000       259
  51.6500       314
  51.7000       244
  51.7500       196
  51.8000       193
  51.8500       146
  51.9000       127
  51.9500        70
  52.0000        74
  52.0500        59
  52.1000        34
  52.1500        34
  52.2000        30
  52.2500        24
  52.3000        22
  52.3500        22
  52.4000        14
  52.4500        17
  52.5000        16
  52.5500        15
  52.6000        21
  52.6500        13
  52.7000        18
  52.7500        19
  52.8000        10
  52.8500        17
  52.9000        22
  52.9500         6
  53.0000        10
  53.0500        11
  53.1000        15
  53.1500        11
  53.2000        12
  53.2500        12
  53.3000        12
  53.3500        14
  53.4000        10
  53.4500        13
  53.5000         7
  53.5500        15
  53.6000        17
  53.6500        12
  53.7000        16
  53.7500         8
  53.8000        13
  53.8500        13
  53.9000        11
  53.9500        10
  54.0000        11
  54.0500         6
  54.1000         9
  54.1500        17
  54.2000        13
  54.2500        12
  54.3000         8
  54.3500         9
  54.4000        10
  54.4500        19
  54.5000        14
  54.5500         7
  54.6000        12
  54.6500        14
  54.7000         6
  54.7500        14
  54.8000         9
  54.8500         6
  54.9000        12
  54.9500        11
  55.0000        11
  55.0500        15
  55.1000        10
  55.1500        10
  55.2000         8
  55.2500         7
  55.3000         8
  55.3500         9
  55.4000        10
  55.4500         9
  55.5000         9
  55.5500        12
  55.6000        17
  55.6500         7
  55.7000         7
  55.7500        14
  55.8000         7
  55.8500        10
  55.9000         8
  55.9500         9
  56.0000        12
  56.0500        11
  56.1000         7
  56.1500        13
  56.2000        24
  56.2500        11
  56.3000         8
  56.3500         5
  56.4000        14
  56.4500         9
  56.5000        12
  56.5500        12
  56.6000        11
  56.6500        13
  56.7000        11
  56.7500        14
  56.8000        14
  56.8500        18
  56.9000         8
  56.9500        15
  57.0000         8
  57.0500        12
  57.1000        15
  57.1500        16
  57.2000        16
  57.2500         6
  57.3000        12
  57.3500        16
  57.4000         6
  57.4500        13
  57.5000        11
  57.5500         8
  57.6000        16
  57.6500        11
  57.7000        13
  57.7500         7
  57.8000         8
  57.8500         6
  57.9000        10
  57.9500         6
  58.0000        11
  58.0500         6
  58.1000        10
  58.1500         9
  58.2000         6
  58.2500        13
  58.3000        13
  58.3500        10
  58.4000         8
  58.4500        13
  58.5000        12
  58.5500         9
  58.6000         8
  58.6500        11
  58.7000         4
  58.7500        11
  58.8000        12
  58.8500        11
  58.9000         8
  58.9500        14
  59.0000         9
  59.0500         9
  59.1000        10
  59.1500        12
  59.2000        12
  59.2500         9
  59.3000         7
  59.3500         7
  59.4000         8
  59.4500        13
  59.5000        11
  59.5500        13
  59.6000         8
  59.6500        10
  59.7000        12
  59.7500        12
  59.8000        10
  59.8500        17
  59.9000        13
  59.9500        11
  60.0000         9
  60.0500        10
  60.1000         3
  60.1500        12
  60.2000        10
  60.2500         8
  60.3000        12
  60.3500        14
  60.4000        12
  60.4500        11
  60.5000        16
  60.5500        16
  60.6000        14
  60.6500         7
  60.7000        10
  60.7500        11
  60.8000         9
  60.8500         9
  60.9000         9
  60.9500        14
  61.0000        10
  61.0500        14
  61.1000        11
  61.1500        12
  61.2000         4
  61.2500         9
  61.3000        10
  61.3500         6
  61.4000         7
  61.4500        10
  61.5000         8
  61.5500        11
  61.6000        13
  61.6500         9
  61.7000        10
  61.7500        11
  61.8000        12
  61.8500        14
  61.9000         9
  61.9500         6
  62.0000         9
  62.0500        15
  62.1000         9
  62.1500         7
  62.2000        10
  62.2500        11
  62.3000        11
  62.3500        13
  62.4000         6
  62.4500        20
  62.5000        10
  62.5500         8
  62.6000         9
  62.6500         8
  62.7000        16
  62.7500        12
  62.8000        16
  62.8500        11
  62.9000        11
  62.9500        11
  63.0000         6
  63.0500        11
  63.1000        10
  63.1500         9
  63.2000        14
  63.2500        15
  63.3000        12
  63.3500        11
  63.4000         7
  63.4500        10
  63.5000         9
  63.5500        20
  63.6000        10
  63.6500        11
  63.7000        12
  63.7500        14
  63.8000         9
  63.8500         9
  63.9000        11
  63.9500        16
  64.0000        10
  64.0500         7
  64.1000        10
  64.1500         6
  64.2000         9
  64.2500        17
  64.3000         9
  64.3500        14
  64.4000        14
  64.4500        12
  64.5000        13
  64.5500        15
  64.6000        12
  64.6500        10
  64.7000        17
  64.7500        10
  64.8000         5
  64.8500         8
  64.9000         7
  64.9500        11
  65.0000        16
  65.0500        14
  65.1000         6
  65.1500        12
  65.2000        10
  65.2500        11
  65.3000         6
  65.3500         8
  65.4000        17
  65.4500        11
  65.5000        15
  65.5500        10
  65.6000         6
  65.6500        11
  65.7000        14
  65.7500         4
  65.8000         8
  65.8500        12
  65.9000        14
  65.9500        12
  66.0000        13
  66.0500        12
  66.1000        13
  66.1500         5
  66.2000        10
  66.2500        10
  66.3000         6
  66.3500         4
  66.4000         8
  66.4500        10
  66.5000        11
  66.5500        11
  66.6000         9
  66.6500        12
  66.7000        15
  66.7500         7
  66.8000        15
  66.8500        13
  66.9000         9
  66.9500        12
  67.0000         8
  67.0500         8
  67.1000        12
  67.1500         6
  67.2000         9
  67.2500        10
  67.3000        11
  67.3500        15
  67.4000        11
  67.4500        10
  67.5000        11
  67.5500         8
  67.6000         9
  67.6500         8
  67.7000         9
  67.7500         6
  67.8000         7
  67.8500         9
  67.9000         8
  67.9500        10
  68.0000        15
  68.0500        15
  68.1000        13
  68.1500         7
  68.2000        12
  68.2500        15
  68.3000         8
  68.3500         8
  68.4000         8
  68.4500         6
  68.5000        15
  68.5500        15
  68.6000        12
  68.6500        11
  68.7000        13
  68.7500        10
  68.8000         8
  68.8500        13
  68.9000        13
  68.9500         8
  69.0000        13
  69.0500        14
  69.1000         6
  69.1500        17
  69.2000        12
  69.2500        12
  69.3000        12
  69.3500        11
  69.4000        12
  69.4500         9
  69.5000         5
  69.5500        12
  69.6000        15
  69.6500        11
  69.7000        13
  69.7500        11
  69.8000        10
  69.8500        10
  69.9000         4
  69.9500        11
  70.0000        15
  70.0500        12
  70.1000         6
  70.1500        10
  70.2000        10
  70.2500        11
  70.3000        12
  70.3500        12
  70.4000        10
  70.4500        12
  70.5000        10
  70.5500         6
  70.6000        13
  70.6500         9
  70.7000        11
  70.7500        10
  70.8000         6
  70.8500         8
  70.9000         9
  70.9500        15
  71.0000         8
  71.0500        13
  71.1000        18
  71.1500        10
  71.2000        12
  71.2500        13
  71.3000        11
  71.3500        10
  71.4000        14
  71.4500        10
  71.5000        10
  71.5500        11
  71.6000         6
  71.6500         9
  71.7000         6
  71.7500        12
  71.8000         9
  71.8500        13
  71.9000         5
  71.9500        10
  72.0000        13
  72.0500        11
  72.1000        14
  72.1500        10
  72.2000        16
  72.2500         9
  72.3000        18
  72.3500         7
  72.4000         7
  72.4500        13
  72.5000         9
  72.5500        12
  72.6000         6
  72.6500        10
  72.7000         7
  72.7500        14
  72.8000         9
  72.8500        10
  72.9000        11
  72.9500        18
  73.0000        14
  73.0500        12
  73.1000        11
  73.1500        15
  73.2000         6
  73.2500        11
  73.3000        20
  73.3500        11
  73.4000        12
  73.4500        14
  73.5000         9
  73.5500        13
  73.6000        12
  73.6500        19
  73.7000        11
  73.7500        11
  73.8000        14
  73.8500        11
  73.9000        19
  73.9500        18
  74.0000        14
  74.0500        14
  74.1000        15
  74.1500        11
  74.2000         8
  74.2500         9
  74.3000        10
  74.3500        14
  74.4000        13
  74.4500        15
  74.5000         6
  74.5500        14
  74.6000        11
  74.6500        19
  74.7000        12
  74.7500         7
  74.8000        17
  74.8500        10
  74.9000         8
  74.9500        13
  75.0000        13
  75.0500        10
  75.1000        20
  75.1500        16
  75.2000        25
  75.2500        30
  75.3000        24
  75.3500        30
  75.4000        32
  75.4500        31
  75.5000        51
  75.5500        58
  75.6000        63
  75.6500        82
  75.7000        76
  75.7500        95
  75.8000       101
  75.8500       125
  75.9000       133
  75.9500       135
  76.0000       116
  76.0500       124
  76.1000        90
  76.1500        99
  76.2000        77
  76.2500        74
  76.3000        71
  76.3500        55
  76.4000        56
  76.4500        40
  76.5000        32
  76.5500        23
  76.6000        35
  76.6500        30
  76.7000        20
  76.7500        14
  76.8000        18
  76.8500        16
  76.9000        19
  76.9500        11
  77.0000        12
  77.0500        18
  77.1000        17
  77.1500        11
  77.2000        13
  77.2500        15
  77.3000        12
  77.3500        19
  77.4000        16
  77.4500        14
  77.5000        10
  77.5500         9
  77.6000        20
  77.6500        19
  77.7000         9
  77.7500        17
  77.8000         8
  77.8500        15
  77.9000        14
  77.9500        11
  78.0000        10
  78.0500        12
  78.1000         4
  78.1500        11
  78.2000        17
  78.2500        10
  78.3000         9
  78.3500        14
  78.4000        15
  78.4500        10
  78.5000         8
  78.5500        18
  78.6000        20
  78.6500        14
  78.7000         6
  78.7500        16
  78.8000         8
  78.8500        12
  78.9000        12
  78.9500        17
  79.0000         6
  79.0500        11
  79.1000        11
  79.1500         9
  79.2000        16
  79.2500        18
  79.3000        10
  79.3500         7
  79.4000         7
  79.4500        14
  79.5000        11
  79.5500         7
  79.6000        12
  79.6500        18
  79.7000        10
  79.7500        10
  79.8000        15
  79.8500        15
  79.9000         6
  79.9500        11
  80.0000        10
  80.0500        17
  80.1000        13
  80.1500        12
  80.2000         9
  80.2500        14
  80.3000        14
  80.3500         6
  80.4000        13
  80.4500        11
  80.5000         9
  80.5500        12
  80.6000        17
  80.6500        10
  80.7000         8
  80.7500         7
  80.8000        11
  80.8500         9
  80.9000        17
  80.9500        10
  81.0000        21
  81.0500         9
  81.1000        15
  81.1500         9
  81.2000         8
  81.2500        13
  81.3000         9
  81.3500        14
  81.4000         8
  81.4500        16
  81.5000        10
  81.5500        12
  81.6000        12
  81.6500        10
  81.7000        10
  81.7500        10
  81.8000         7
  81.8500        19
  81.9000        11
  81.9500        12
  82.0000         7
  82.0500        18
  82.1000        14
  82.1500        14
  82.2000         7
  82.2500        17
  82.3000        11
  82.3500        12
  82.4000        13
  82.4500         6
  82.5000         6
  82.5500        10
  82.6000        18
  82.6500        11
  82.7000        15
  82.7500        13
  82.8000        15
  82.8500         9
  82.9000         8
  82.9500        11
  83.0000        10
  83.0500         6
  83.1000        11
  83.1500        15
  83.2000        11
  83.2500        16
  83.3000        18
  83.3500         9
  83.4000        14
  83.4500         9
  83.5000        11
  83.5500        15
  83.6000        13
  83.6500        17
  83.7000        13
  83.7500         4
  83.8000        10
  83.8500        13
  83.9000         8
  83.9500        11
  84.0000        15
  84.0500        14
  84.1000        12
  84.1500        20
  84.2000         9
  84.2500        11
  84.3000        11
  84.3500        14
  84.4000        15
  84.4500        11
  84.5000         8
  84.5500        12
  84.6000         9
  84.6500         4
  84.7000        13
  84.7500        10
  84.8000         9
  84.8500         7
  84.9000        11
  84.9500         7
  85.0000        17
  85.0500        15
  85.1000        11
  85.1500        10
  85.2000        13
  85.2500        12
  85.3000        16
  85.3500        12
  85.4000        13
  85.4500        11
  85.5000         8
  85.5500        12
  85.6000        13
  85.6500        18
  85.7000        14
  85.7500        11
  85.8000        10
  85.8500        12
  85.9000         9
  85.9500        12
  86.0000        13
  86.0500        12
  86.1000        17
  86.1500        17
  86.2000        11
  86.2500        16
  86.3000        11
  86.3500        11
  86.4000        11
  86.4500        10
  86.5000        14
  86.5500        11
  86.6000        12
  86.6500        13
  86.7000         7
  86.7500         8
  86.8000        12
  86.8500         9
  86.9000         9
  86.9500        18
  87.0000         9
  87.0500        15
  87.1000        11
  87.1500        15
  87.2000        11
  87.2500        13
  87.3000        12
  87.3500        12
  87.4000        10
  87.4500         7
  87.5000        13
  87.5500        13
  87.6000        15
  87.6500        12
  87.7000        20
  87.7500        12
  87.8000        13
  87.8500        17
  87.9000        14
  87.9500        19
  88.0000        13
  88.0500        12
  88.1000        16
  88.1500        20
  88.2000         7
  88.2500        18
  88.3000        13
  88.3500        18
  88.4000        14
  88.4500        11
  88.5000        14
  88.5500        12
  88.6000        18
  88.6500        13
  88.7000        12
  88.7500        12
  88.8000         9
  88.8500        11
  88.9000         6
  88.9500        10
  89.0000        13
  89.0500         9
  89.1000        14
  89.1500        18
  89.2000        11
  89.2500        13
  89.3000        17
  89.3500        14
  89.4000        18
  89.4500        15
  89.5000        15
  89.5500        16
  89.6000        10
  89.6500         8
  89.7000        16
  89.7500        15
  89.8000        13
  89.8500        10
  89.9000        14
  89.9500        16
  90.0000         9
  90.0500        20
  90.1000        12
  90.1500        12
  90.2000        11
  90.2500        22
  90.3000        11
  90.3500        12
  90.4000        16
  90.4500        10
  90.5000        11
  90.5500        16
  90.6000        17
  90.6500        17
  90.7000        17
  90.7500        16
  90.8000        14
  90.8500        16
  90.9000        16
  90.9500        17
  91.0000        18
  91.0500        18
  91.1000        24
  91.1500        19
  91.2000        23
  91.2500        20
  91.3000        18
  91.3500        16
  91.4000        27
  91.4500        26
  91.5000        24
  91.5500        29
  91.6000        24
  91.6500        27
  91.7000        41
  91.7500        35
  91.8000        42
  91.8500        67
  91.9000        54
  91.9500        65
  92.0000        90
  92.0500        79
  92.1000        91
  92.1500        74
  92.2000       103
  92.2500       115
  92.3000       118
  92.3500       111
  92.4000       103
  92.4500        96
  92.5000        84
  92.5500        94
  92.6000        92
  92.6500        86
  92.7000        69
  92.7500        58
  92.8000        58
  92.8500        56
  92.9000        39
  92.9500        32
  93.0000        39
  93.0500        36
  93.1000        27
  93.1500        23
  93.2000        25
  93.2500        19
  93.3000        21
  93.3500        21
  93.4000        23
  93.4500        17
  93.5000        17
  93.5500        19
  93.6000         9
  93.6500        16
  93.7000        16
  93.7500        17
  93.8000        13
  93.8500        14
  93.9000        24
  93.9500        17
  94.0000        15
  94.0500        17
  94.1000        20
  94.1500        18
  94.2000        10
  94.2500        10
  94.3000         8
  94.3500        18
  94.4000        10
  94.4500        18
  94.5000        17
  94.5500        12
  94.6000        15
  94.6500         8
  94.7000        11
  94.7500        19
  94.8000        13
  94.8500        12
  94.9000        14
  94.9500        18
  95.0000        16
  95.0500        16
  95.1000        19
  95.1500        11
  95.2000        12
  95.2500        10
  95.3000        16
  95.3500         9
  95.4000         7
  95.4500         8
  95.5000        10
  95.5500         7
  95.6000         9
  95.6500         7
  95.7000        16
  95.7500        12
  95.8000        16
  95.8500        10
  95.9000        13
  95.9500        12
  96.0000        14
  96.0500        11
  96.1000        19
  96.1500        15
  96.2000        10
  96.2500        22
  96.3000        11
  96.3500        12
  96.4000        15
  96.4500        11
  96.5000        13
  96.5500        15
  96.6000        13
  96.6500        14
  96.7000        11
  96.7500        17
  96.8000        13
  96.8500        22
  96.9000         8
  96.9500        20
  97.0000        10
  97.0500        13
  97.1000        14
  97.1500        20
  97.2000        17
  97.2500        22
  97.3000        33
  97.3500        26
  97.4000        26
  97.4500        24
  97.5000        39
  97.5500        31
  97.6000        31
  97.6500        40
  97.7000        39
  97.7500        58
  97.8000        47
  97.8500        53
  97.9000        55
  97.9500        27
  98.0000        38
  98.0500        29
  98.1000        32
  98.1500        36
  98.2000        38
  98.2500        32
  98.3000        33
  98.3500        22
  98.4000        25
  98.4500        24
  98.5000        20
  98.5500        22
  98.6000        17
  98.6500         9
  98.7000        19
  98.7500        16
  98.8000        19
  98.8500        17
  98.9000        10
  98.9500        10
  99.0000        12
  99.0500        14
  99.1000        12
  99.1500        17
  99.2000        17
  99.2500        12
  99.3000        12
  99.3500        12
  99.4000        18
  99.4500         8
  99.5000        21
  99.5500        13
  99.6000        11
  99.6500        14
  99.7000        14
  99.7500         8
  99.8000        25
  99.8500         7
  99.9000        18
  99.9500         6
 100.0000        11
 100.0500        10
 100.1000        14
 100.1500        19
 100.2000        10
 100.2500        13
 100.3000        17
 100.3500         7
 100.4000        14
 100.4500        13
 100.5000        15
 100.5500        11
 100.6000        12
 100.6500        11
 100.7000        10
 100.7500        14
 100.8000        21
 100.8500         9
 100.9000         6
 100.9500         9
 101.0000        14
 101.0500        12
 101.1000        18
 101.1500        15
 101.2000        10
 101.2500        10
 101.3000         6
 101.3500        13
 101.4000        10
 101.4500         9
 101.5000        15
 101.5500         9
 101.6000         7
 101.6500         4
 101.7000        10
 101.7500        12
 101.8000        13
 101.8500        12
 101.9000        13
 101.9500        20
 102.0000        14
 102.0500         6
 102.1000         8
 102.1500        17
 102.2000        11
 102.2500        15
 102.3000        16
 102.3500        10
 102.4000         8
 102.4500        13
 102.5000        13
 102.5500        12
 102.6000        13
 102.6500        14
 102.7000        13
 102.7500        16
 102.8000        13
 102.8500        16
 102.9000        11
 102.9500        11
 103.0000        16
 103.0500        14
 103.1000        11
 103.1500        14
 103.2000        16
 103.2500        12
 103.3000        11
 103.3500        10
 103.4000        12
 103.4500        10
 103.5000         9
 103.5500        14
 103.6000        12
 103.6500        14
 103.7000        12
 103.7500         8
 103.8000         7
 103.8500        10
 103.9000        14
 103.9500        10
 104.0000         9
 104.0500        10
 104.1000        13
 104.1500        10
 104.2000        14
 104.2500         8
 104.3000        26
 104.3500        20
 104.4000         8
 104.4500        14
 104.5000        12
 104.5500        15
 104.6000        14
 104.6500        13
 104.7000        12
 104.7500        15
 104.8000        13
 104.8500        12
 104.9000        15
 104.9500         8
 105.0000        16
 105.0500        12
 105.1000        19
 105.1500        14
 105.2000         8
 105.2500        14
 105.3000        11
 105.3500        12
 105.4000        10
 105.4500        16
 105.5000         9
 105.5500        12
 105.6000        14
 105.6500         9
 105.7000        13
 105.7500        10
 105.8000        17
 105.8500        12
 105.9000        12
 105.9500         9
 106.0000        11
 106.0500        11
 106.1000        16
 106.1500         9
 106.2000        11
 106.2500        11
 106.3000        13
 106.3500        10
 106.4000         8
 106.4500        12
 106.5000        12
 106.5500        11
 106.6000        15
 106.6500        10
 106.7000        11
 106.7500        13
 106.8000        16
 106.8500         9
 106.9000        12
 106.9500        16
 107.0000         8
 107.0500        13
 107.1000        19
 107.1500        13
 107.2000        18
 107.2500        13
 107.3000        14
 107.3500        12
 107.4000        16
 107.4500        12
 107.5000        13
 107.5500         8
 107.6000         9
 107.6500        14
 107.7000        14
 107.7500        16
 107.8000        11
 107.8500        12
 107.9000         6
 107.9500        12
 108.0000         9
 108.0500         8
 108.1000        13
 108.1500        16
 108.2000        14
 108.2500        11
 108.3000        14
 108.3500        27
 108.4000         9
 108.4500        19
 108.5000        13
 108.5500        15
 108.6000         7
 108.6500        16
 108.7000        13
 108.7500        14
 108.8000        11
 108.8500        16
 108.9000        14
 108.9500        11
 109.0000        10
 109.0500        14
 109.1000        13
 109.1500        13
 109.2000         9
 109.2500         8
 109.3000         8
 109.3500        12
 109.4000        10
 109.4500        14
 109.5000         9
 109.5500         9
 109.6000        10
 109.6500         5
 109.7000         9
 109.7500        13
 109.8000        15
 109.8500        11
 109.9000         5
 109.9500         8
 110.0000        12
