  20.0000         7
  20.0500         7
  20.1000         6
  20.1500        11
  20.2000         4
  20.2500         7
  20.3000         6
  20.3500         4
  20.4000        14
  20.4500         7
  20.5000        10
  20.5500         8
  20.6000         8
  20.6500        10
  20.7000         7
  20.7500        11
  20.8000         6
  20.8500         4
  20.9000        12
  20.9500        13
  21.0000         8
  21.0500        11
  21.1000         7
  21.1500         8
  21.2000         5
  21.2500         3
  21.3000         5
  21.3500         5
  21.4000         9
  21.4500         6
  21.5000         9
  21.5500         4
  21.6000         9
  21.6500         8
  21.7000         4
  21.7500        10
  21.8000         8
  21.8500         8
  21.9000         9
  21.9500         8
  22.0000         9
  22.0500         8
  22.1000        13
  22.1500         8
  22.2000         5
  22.2500         8
  22.3000         5
  22.3500        11
  22.4000         6
  22.4500         8
  22.5000        13
  22.5500         9
  22.6000         9
  22.6500         3
  22.7000         7
  22.7500        11
  22.8000         6
  22.8500         7
  22.9000         3
  22.9500         8
  23.0000         3
  23.0500        10
  23.1000         4
  23.1500        17
  23.2000         2
  23.2500         8
  23.3000        11
  23.3500        10
  23.4000         9
  23.4500         5
  23.5000         6
  23.5500         5
  23.6000         6
  23.6500        12
  23.7000         7
  23.7500         9
  23.8000         7
  23.8500         6
  23.9000         7
  23.9500         6
  24.0000        12
  24.0500        10
  24.1000        10
  24.1500         9
  24.2000         7
  24.2500        10
  24.3000         7
  24.3500        12
  24.4000         9
  24.4500         6
  24.5000         9
  24.5500        11
  24.6000        10
  24.6500         6
  24.7000        11
  24.7500        10
  24.8000        11
  24.8500         9
  24.9000        12
  24.9500        10
  25.0000        12
  25.0500         4
  25.1000         8
  25.1500         5
  25.2000         7
  25.2500         8
  25.3000        13
  25.3500         9
  25.4000         3
  25.4500        14
  25.5000         7
  25.5500         6
  25.6000         7
  25.6500        10
  25.7000         8
  25.7500         6
  25.8000        10
  25.8500         6
  25.9000         8
  25.9500         6
  26.0000         6
  26.0500         1
  26.1000        11
  26.1500         9
  26.2000         6
  26.2500         6
  26.3000         8
  26.3500         7
  26.4000        14
  26.4500         8
  26.5000         8
  26.5500        10
  26.6000         9
  26.6500         8
  26.7000         6
  26.7500        10
  26.8000         7
  26.8500        11
  26.9000         9
  26.9500        11
  27.0000         6
  27.0500         6
  27.1000        11
  27.1500         9
  27.2000         7
  27.2500        11
  27.3000         9
  27.3500         9
  27.4000        10
  27.4500         4
  27.5000        13
  27.5500         5
  27.6000        11
  27.6500         9
  27.7000        10
  27.7500        11
  27.8000         6
  27.8500         5
  27.9000         8
  27.9500         7
  28.0000        12
  28.0500         3
  28.1000         4
  28.1500        13
  28.2000         5
  28.2500         6
  28.3000         9
  28.3500        10
  28.4000         9
  28.4500         4
  28.5000        13
  28.5500        10
  28.6000         5
  28.6500         8
  28.7000        10
  28.7500         6
  28.8000         7
  28.8500         2
  28.9000         8
  28.9500         7
  29.0000         7
  29.0500         3
  29.1000         4
  29.1500         3
  29.2000         5
  29.2500         5
  29.3000         5
  29.3500         8
  29.4000         5
  29.4500        11
  29.5000         8
  29.5500         5
  29.6000         5
  29.6500         5
  29.7000         8
  29.7500         6
  29.8000        10
  29.8500         7
  29.9000         2
  29.9500        10
  30.0000        13
  30.0500        11
  30.1000         6
  30.1500        13
  30.2000         6
  30.2500         6
  30.3000         5
  30.3500         6
  30.4000         6
  30.4500         5
  30.5000         9
  30.5500         7
  30.6000         6
  30.6500        11
  30.7000         4
  30.7500        14
  30.8000        12
  30.8500        11
  30.9000        13
  30.9500         8
  31.0000         9
  31.0500        11
  31.1000        12
  31.1500        11
  31.2000        10
  31.2500        10
  31.3000         4
  31.3500        14
  31.4000        10
  31.4500         2
  31.5000        11
  31.5500         8
  31.6000         8
  31.6500         9
  31.7000        12
  31.7500         5
  31.8000         9
  31.8500        13
  31.9000         9
  31.9500         8
  32.0000         9
  32.0500         4
  32.1000         6
  32.1500         9
  32.2000        11
  32.2500        13
  32.3000         9
  32.3500         9
  32.4000         2
  32.4500         4
  32.5000         6
  32.5500         7
  32.6000         7
  32.6500         4
  32.7000         5
  32.7500         7
  32.8000         7
  32.8500         9
  32.9000         6
  32.9500         7
  33.0000        10
  33.0500         4
  33.1000         9
  33.1500         7
  33.2000         6
  33.2500         7
  33.3000        12
  33.3500        10
  33.4000        11
  33.4500         9
  33.5000        11
  33.5500         1
  33.6000         8
  33.6500        11
  33.7000         9
  33.7500         4
  33.8000        12
  33.8500         7
  33.9000        10
  33.9500         4
  34.0000         7
  34.0500         7
  34.1000         8
  34.1500         9
  34.2000         4
  34.2500         7
  34.3000        10
  34.3500         5
  34.4000         6
  34.4500         7
  34.5000         7
  34.5500         7
  34.6000        14
  34.6500         6
  34.7000         6
  34.7500         7
  34.8000         6
  34.8500         9
  34.9000        11
  34.9500         3
  35.0000         6
  35.0500         6
  35.1000         7
  35.1500         8
  35.2000         8
  35.2500         6
  35.3000         9
  35.3500         3
  35.4000        11
  35.4500         8
  35.5000         6
  35.5500        15
  35.6000        11
  35.6500        11
  35.7000        12
  35.7500        11
  35.8000         8
  35.8500        10
  35.9000         6
  35.9500        10
  36.0000         6
  36.0500         8
  36.1000         7
  36.1500        12
  36.2000        11
  36.2500        11
  36.3000         7
  36.3500         9
  36.4000        12
  36.4500        10
  36.5000         9
  36.5500        11
  36.6000        12
  36.6500         6
  36.7000         6
  36.7500        10
  36.8000        11
  36.8500         7
  36.9000         9
  36.9500         7
  37.0000         9
  37.0500         6
  37.1000         7
  37.1500        10
  37.2000        16
  37.2500        16
  37.3000        10
  37.3500        10
  37.4000         3
  37.4500        13
  37.5000        15
  37.5500         6
  37.6000        11
  37.6500        12
  37.7000         8
  37.7500         6
  37.8000        10
  37.8500         6
  37.9000        10
  37.9500         6
  38.0000         7
  38.0500         3
  38.1000        12
  38.1500         5
  38.2000        11
  38.2500         7
  38.3000         5
  38.3500        11
  38.4000        11
  38.4500         9
  38.5000        12
  38.5500         9
  38.6000        13
  38.6500         7
  38.7000         8
  38.7500        15
  38.8000        13
  38.8500         8
  38.9000         3
  38.9500         4
  39.0000         8
  39.0500         6
  39.1000        10
  39.1500        13
  39.2000        11
  39.2500        11
  39.3000         7
  39.3500         6
  39.4000        11
  39.4500         9
  39.5000         7
  39.5500         7
  39.6000         4
  39.6500         9
  39.7000         8
  39.7500         9
  39.8000         9
  39.8500         9
  39.9000        10
  39.9500        10
  40.0000        11
  40.0500        11
  40.1000        12
  40.1500        13
  40.2000         7
  40.2500        17
  40.3000        10
  40.3500        10
  40.4000         8
  40.4500         5
  40.5000        16
  40.5500         5
  40.6000        11
  40.6500        11
  40.7000        10
  40.7500        11
  40.8000        10
  40.8500        15
  40.9000        10
  40.9500        15
  41.0000         9
  41.0500        12
  41.1000         8
  41.1500        12
  41.2000         9
  41.2500         9
  41.3000        14
  41.3500         8
  41.4000        10
  41.4500        18
  41.5000        17
  41.5500        16
  41.6000         8
  41.6500        12
  41.7000        10
  41.7500        12
  41.8000        10
  41.8500         9
  41.9000         6
  41.9500        11
  42.0000        17
  42.0500        15
  42.1000         8
  42.1500        16
  42.2000         9
  42.2500         8
  42.3000         7
  42.3500        11
  42.4000        21
  42.4500        15
  42.5000        18
  42.5500        24
  42.6000        15
  42.6500        10
  42.7000        21
  42.7500        20
  42.8000        17
  42.8500        24
  42.9000        20
  42.9500        27
  43.0000        23
  43.0500        23
  43.1000        29
  43.1500        28
  43.2000        23
  43.2500        45
  43.3000        48
  43.3500        33
  43.4000        48
  43.4500        44
  43.5000        60
  43.5500        90
  43.6000       117
  43.6500       160
  43.7000       193
  43.7500       276
  43.8000       372
  43.8500       481
  43.9000       633
  43.9500       756
  44.0000       787
  44.0500       823
  44.1000       753
  44.1500       602
  44.2000       505
  44.2500       326
  44.3000       193
  44.3500       157
  44.4000       113
  44.4500        84
  44.5000        50
  44.5500        51
  44.6000        42
  44.6500        31
  44.7000        37
  44.7500        30
  44.8000        28
  44.8500        18
  44.9000        14
  44.9500        20
  45.0000        16
  45.0500        23
  45.1000        17
  45.1500        18
  45.2000        12
  45.2500        11
  45.3000         4
  45.3500        15
  45.4000        18
  45.4500         9
  45.5000        14
  45.5500        11
  45.6000        10
  45.6500        11
  45.7000        12
  45.7500        20
  45.8000         8
  45.8500         9
  45.9000        15
  45.9500        15
  46.0000        13
  46.0500        10
  46.1000        15
  46.1500         9
  46.2000         7
  46.2500        11
  46.3000         7
  46.3500        14
  46.4000         7
  46.4500        12
  46.5000        13
  46.5500        15
  46.6000         7
  46.6500         7
  46.7000         9
  46.7500        14
  46.8000         8
  46.8500         7
  46.9000         8
  46.9500         8
  47.0000        14
  47.0500         8
  47.1000        11
  47.1500        14
  47.2000         9
  47.2500         6
  47.3000        14
  47.3500         7
  47.4000         5
  47.4500        14
  47.5000         8
  47.5500        10
  47.6000        12
  47.6500        14
  47.7000         8
  47.7500        10
  47.8000         9
  47.8500         9
  47.9000         9
  47.9500        13
  48.0000        13
  48.0500        13
  48.1000         7
  48.1500         8
  48.2000        10
  48.2500        12
  48.3000         6
  48.3500        13
  48.4000         9
  48.4500         9
  48.5000        11
  48.5500        12
  48.6000        10
  48.6500        10
  48.7000        15
  48.7500         8
  48.8000        19
  48.8500        11
  48.9000         4
  48.9500        16
  49.0000        12
  49.0500        19
  49.1000         6
  49.1500        13
  49.2000         9
  49.2500         8
  49.3000        11
  49.3500        11
  49.4000        12
  49.4500         6
  49.5000        10
  49.5500        15
  49.6000         6
  49.6500        16
  49.7000        15
  49.7500        11
  49.8000         5
  49.8500         7
  49.9000        10
  49.9500        17
  50.0000        13
  50.0500        16
  50.1000        16
  50.1500        16
  50.2000        18
  50.2500        19
  50.3000        25
  50.3500        14
  50.4000        21
  50.4500        26
  50.5000        24
  50.5500        25
  50.6000        35
  50.6500        31
  50.7000        39
  50.7500        60
  50.8000        88
  50.8500        91
  50.9000        98
  50.9500        99
  51.0000       138
  51.0500       173
  51.1000       215
  51.1500       207
  51.2000       225
  51.2500       258
  51.3000       281
  51.3500       244
  51.4000       235
  51.4500       184
  51.5000       173
  51.5500       132
  51.6000        84
  51.6500        93
  51.7000        66
  51.7500        43
  51.8000        50
  51.8500        34
  51.9000        29
  51.9500        26
  52.0000        28
  52.0500        15
  52.1000        11
  52.1500        15
  52.2000        13
  52.2500         9
  52.3000        11
  52.3500        12
  52.4000        14
  52.4500        15
  52.5000        10
  52.5500         9
  52.6000         8
  52.6500        12
  52.7000        12
  52.7500        21
  52.8000         8
  52.8500         9
  52.9000        11
  52.9500        11
  53.0000        16
  53.0500         5
  53.1000        12
  53.1500        17
  53.2000        16
  53.2500        11
  53.3000        12
  53.3500        16
  53.4000        15
  53.4500        10
  53.5000        14
  53.5500         9
  53.6000        10
  53.6500         9
  53.7000        16
  53.7500         8
  53.8000         7
  53.8500         6
  53.9000         7
  53.9500        10
  54.0000        12
  54.0500         8
  54.1000        11
  54.1500         8
  54.2000         4
  54.2500        11
  54.3000         9
  54.3500        14
  54.4000         8
  54.4500         6
  54.5000         6
  54.5500        10
  54.6000         8
  54.6500        11
  54.7000         8
  54.7500        10
  54.8000         9
  54.8500        14
  54.9000         9
  54.9500         7
  55.0000         7
  55.0500        14
  55.1000        12
  55.1500         8
  55.2000         7
  55.2500         6
  55.3000        12
  55.3500        13
  55.4000         5
  55.4500         9
  55.5000         8
  55.5500         8
  55.6000        10
  55.6500         6
  55.7000         7
  55.7500         7
  55.8000         7
  55.8500        10
  55.9000         8
  55.9500         6
  56.0000         8
  56.0500         9
  56.1000        10
  56.1500        13
  56.2000        15
  56.2500        12
  56.3000         7
  56.3500         8
  56.4000         5
  56.4500         6
  56.5000        12
  56.5500         6
  56.6000        11
  56.6500         7
  56.7000         2
  56.7500        10
  56.8000        10
  56.8500         7
  56.9000         6
  56.9500         8
  57.0000        12
  57.0500         8
  57.1000         5
  57.1500         6
  57.2000        14
  57.2500        17
  57.3000         9
  57.3500         7
  57.4000        10
  57.4500        12
  57.5000        10
  57.5500        11
  57.6000         5
  57.6500         9
  57.7000         8
  57.7500        18
  57.8000         7
  57.8500        19
  57.9000         6
  57.9500        12
  58.0000         8
  58.0500         7
  58.1000        10
  58.1500         5
  58.2000        12
  58.2500        11
  58.3000         9
  58.3500        14
  58.4000         5
  58.4500         7
  58.5000         6
  58.5500        12
  58.6000        10
  58.6500        13
  58.7000        11
  58.7500        10
  58.8000         7
  58.8500         8
  58.9000        12
  58.9500         7
  59.0000         6
  59.0500        13
  59.1000         7
  59.1500         9
  59.2000         8
  59.2500        12
  59.3000        12
  59.3500         6
  59.4000        10
  59.4500         3
  59.5000        12
  59.5500         8
  59.6000         9
  59.6500         8
  59.7000        10
  59.7500        11
  59.8000        13
  59.8500        10
  59.9000        12
  59.9500        12
  60.0000         9
  60.0500        11
  60.1000         6
  60.1500         8
  60.2000         4
  60.2500        11
  60.3000         6
  60.3500         6
  60.4000         6
  60.4500         3
  60.5000         9
  60.5500         8
  60.6000         9
  60.6500         4
  60.7000         9
  60.7500        16
  60.8000        13
  60.8500        11
  60.9000         5
  60.9500         6
  61.0000         8
  61.0500         5
  61.1000         7
  61.1500        10
  61.2000        15
  61.2500        10
  61.3000         9
  61.3500         9
  61.4000         9
  61.4500         8
  61.5000         6
  61.5500         9
  61.6000        13
  61.6500         6
  61.7000         8
  61.7500        12
  61.8000         3
  61.8500         8
  61.9000         7
  61.9500         9
  62.0000        11
  62.0500         6
  62.1000        10
  62.1500        11
  62.2000         4
  62.2500        12
  62.3000         7
  62.3500        10
  62.4000         8
  62.4500        11
  62.5000        12
  62.5500        10
  62.6000         9
  62.6500        15
  62.7000        16
  62.7500        10
  62.8000        19
  62.8500         4
  62.9000        13
  62.9500        17
  63.0000        10
  63.0500        13
  63.1000         9
  63.1500         7
  63.2000         8
  63.2500         8
  63.3000         7
  63.3500        14
  63.4000         5
  63.4500        15
  63.5000        11
  63.5500         6
  63.6000        10
  63.6500        13
  63.7000        17
  63.7500         5
  63.8000         7
  63.8500         9
  63.9000         8
  63.9500        14
  64.0000         8
  64.0500        10
  64.1000        12
  64.1500        11
  64.2000         7
  64.2500        12
  64.3000         7
  64.3500         9
  64.4000        10
  64.4500         7
  64.5000         9
  64.5500         7
  64.6000         9
  64.6500         9
  64.7000        10
  64.7500         9
  64.8000         6
  64.8500         9
  64.9000        10
  64.9500        12
  65.0000        12
  65.0500         6
  65.1000        12
  65.1500         9
  65.2000        14
  65.2500         7
  65.3000        12
  65.3500        11
  65.4000         4
  65.4500         4
  65.5000        13
  65.5500        15
  65.6000         9
  65.6500        11
  65.7000        12
  65.7500         8
  65.8000         9
  65.8500         7
  65.9000         8
  65.9500         8
  66.0000         8
  66.0500         4
  66.1000        10
  66.1500         6
  66.2000         7
  66.2500         8
  66.3000        14
  66.3500         8
  66.4000        14
  66.4500        11
  66.5000         5
  66.5500         5
  66.6000        11
  66.6500         6
  66.7000        10
  66.7500         8
  66.8000        10
  66.8500         7
  66.9000        10
  66.9500        13
  67.0000        10
  67.0500        14
  67.1000        10
  67.1500        10
  67.2000         6
  67.2500        10
  67.3000        10
  67.3500        15
  67.4000        11
  67.4500        15
  67.5000        12
  67.5500         7
  67.6000         7
  67.6500         8
  67.7000         9
  67.7500        10
  67.8000         5
  67.8500        10
  67.9000        11
  67.9500         8
  68.0000        11
  68.0500         9
  68.1000         8
  68.1500        12
  68.2000        11
  68.2500         9
  68.3000         6
  68.3500        13
  68.4000         4
  68.4500         6
  68.5000         9
  68.5500        10
  68.6000        10
  68.6500         9
  68.7000         9
  68.7500         6
  68.8000         9
  68.8500        10
  68.9000         9
  68.9500         8
  69.0000         8
  69.0500         8
  69.1000         8
  69.1500         7
  69.2000        10
  69.2500         8
  69.3000         7
  69.3500         5
  69.4000         9
  69.4500         8
  69.5000        10
  69.5500         8
  69.6000        11
  69.6500         7
  69.7000        11
  69.7500         8
  69.8000         6
  69.8500         5
  69.9000         7
  69.9500        12
  70.0000        10
  70.0500        10
  70.1000         4
  70.1500        10
  70.2000        10
  70.2500        13
  70.3000         5
  70.3500         7
  70.4000         8
  70.4500         7
  70.5000        11
  70.5500        10
  70.6000         5
  70.6500         8
  70.7000        13
  70.7500         6
  70.8000         9
  70.8500        12
  70.9000        12
  70.9500         9
  71.0000         5
  71.0500        13
  71.1000        16
  71.1500        14
  71.2000        11
  71.2500         9
  71.3000         7
  71.3500        11
  71.4000         6
  71.4500         8
  71.5000         6
  71.5500        14
  71.6000         8
  71.6500         9
  71.7000         7
  71.7500         6
  71.8000        10
  71.8500        14
  71.9000        13
  71.9500         9
  72.0000         6
  72.0500        12
  72.1000        11
  72.1500        18
  72.2000         6
  72.2500        12
  72.3000        10
  72.3500         8
  72.4000        11
  72.4500        11
  72.5000         9
  72.5500        14
  72.6000         6
  72.6500        11
  72.7000         9
  72.7500         6
  72.8000         9
  72.8500        20
  72.9000        10
  72.9500        10
  73.0000        17
  73.0500        11
  73.1000        12
  73.1500         8
  73.2000         8
  73.2500         9
  73.3000         9
  73.3500        13
  73.4000        15
  73.4500        15
  73.5000        12
  73.5500        10
  73.6000        15
  73.6500        11
  73.7000        15
  73.7500         8
  73.8000        11
  73.8500        11
  73.9000         5
  73.9500        10
  74.0000        12
  74.0500        12
  74.1000        16
  74.1500        18
  74.2000        16
  74.2500        18
  74.3000         8
  74.3500        15
  74.4000        26
  74.4500         9
  74.5000        15
  74.5500        17
  74.6000        16
  74.6500        14
  74.7000        20
  74.7500        23
  74.8000        31
  74.8500        36
  74.9000        35
  74.9500        49
  75.0000        44
  75.0500        48
  75.1000        64
  75.1500        71
  75.2000       100
  75.2500        89
  75.3000        93
  75.3500        89
  75.4000       112
  75.4500       100
  75.5000       109
  75.5500        91
  75.6000        71
  75.6500        74
  75.7000        81
  75.7500        62
  75.8000        63
  75.8500        52
  75.9000        42
  75.9500        41
  76.0000        31
  76.0500        28
  76.1000        20
  76.1500        27
  76.2000        20
  76.2500        16
  76.3000        21
  76.3500        20
  76.4000        27
  76.4500         9
  76.5000        16
  76.5500        14
  76.6000        19
  76.6500        11
  76.7000        14
  76.7500        18
  76.8000         8
  76.8500        10
  76.9000        10
  76.9500         9
  77.0000        12
  77.0500        13
  77.1000         9
  77.1500         7
  77.2000        12
  77.2500        16
  77.3000        13
  77.3500         9
  77.4000        21
  77.4500        13
  77.5000        10
  77.5500        10
  77.6000         8
  77.6500        10
  77.7000        12
  77.7500         5
  77.8000        10
  77.8500         6
  77.9000        17
  77.9500        10
  78.0000        10
  78.0500         7
  78.1000        13
  78.1500        13
  78.2000         5
  78.2500         8
  78.3000        10
  78.3500        12
  78.4000        10
  78.4500        19
  78.5000         8
  78.5500        11
  78.6000         6
  78.6500         8
  78.7000         8
  78.7500        12
  78.8000         7
  78.8500        11
  78.9000        12
  78.9500        17
  79.0000        18
  79.0500         9
  79.1000        13
  79.1500         9
  79.2000        10
  79.2500         6
  79.3000        14
  79.3500        11
  79.4000        10
  79.4500        10
  79.5000        11
  79.5500        14
  79.6000        10
  79.6500        14
  79.7000         8
  79.7500        12
  79.8000        15
  79.8500         6
  79.9000         9
  79.9500         7
  80.0000        12
  80.0500        11
  80.1000         7
  80.1500        11
  80.2000        11
  80.2500        10
  80.3000         6
  80.3500        11
  80.4000        11
  80.4500         8
  80.5000         5
  80.5500        13
  80.6000         8
  80.6500         5
  80.7000        11
  80.7500         8
  80.8000        10
  80.8500         9
  80.9000         6
  80.9500         6
  81.0000         8
  81.0500         9
  81.1000        16
  81.1500         4
  81.2000        12
  81.2500         7
  81.3000         8
  81.3500         7
  81.4000         8
  81.4500         4
  81.5000         3
  81.5500         9
  81.6000         7
  81.6500        14
  81.7000        10
  81.7500         8
  81.8000         6
  81.8500        12
  81.9000        10
  81.9500         8
  82.0000         7
  82.0500        10
  82.1000         8
  82.1500         6
  82.2000        12
  82.2500        16
  82.3000         4
  82.3500        16
  82.4000         8
  82.4500        12
  82.5000         7
  82.5500        10
  82.6000         4
  82.6500         8
  82.7000         9
  82.7500        12
  82.8000         6
  82.8500         9
  82.9000        14
  82.9500         6
  83.0000        13
  83.0500        11
  83.1000         8
  83.1500         7
  83.2000         7
  83.2500         8
  83.3000         8
  83.3500        11
  83.4000         9
  83.4500         3
  83.5000        14
  83.5500         4
  83.6000        10
  83.6500        16
  83.7000        11
  83.7500        13
  83.8000        12
  83.8500        11
  83.9000        12
  83.9500        17
  84.0000         7
  84.0500        11
  84.1000         6
  84.1500         9
  84.2000        10
  84.2500        10
  84.3000         7
  84.3500        14
  84.4000        10
  84.4500        12
  84.5000        12
  84.5500         9
  84.6000        17
  84.6500         5
  84.7000         2
  84.7500         9
  84.8000         5
  84.8500         8
  84.9000         7
  84.9500         6
  85.0000         9
  85.0500         6
  85.1000        12
  85.1500         9
  85.2000         8
  85.2500        12
  85.3000        10
  85.3500        10
  85.4000         6
  85.4500         8
  85.5000        10
  85.5500        10
  85.6000         6
  85.6500        14
  85.7000        14
  85.7500        11
  85.8000        10
  85.8500        11
  85.9000         9
  85.9500        11
  86.0000        10
  86.0500         9
  86.1000        17
  86.1500        12
  86.2000        11
  86.2500         9
  86.3000         9
  86.3500         8
  86.4000        10
  86.4500        12
  86.5000        13
  86.5500        11
  86.6000        14
  86.6500         3
  86.7000         5
  86.7500        10
  86.8000        11
  86.8500        13
  86.9000         7
  86.9500        11
  87.0000         7
  87.0500         7
  87.1000        11
  87.1500        11
  87.2000        12
  87.2500        12
  87.3000        12
  87.3500        14
  87.4000        10
  87.4500         9
  87.5000        10
  87.5500        11
  87.6000         8
  87.6500        10
  87.7000        11
  87.7500         7
  87.8000        10
  87.8500         9
  87.9000         8
  87.9500        16
  88.0000        13
  88.0500        12
  88.1000        10
  88.1500        15
  88.2000        12
  88.2500        14
  88.3000         5
  88.3500         8
  88.4000        11
  88.4500         4
  88.5000        12
  88.5500         8
  88.6000        11
  88.6500        10
  88.7000        11
  88.7500        11
  88.8000        12
  88.8500        11
  88.9000         9
  88.9500        12
  89.0000        11
  89.0500        10
  89.1000        15
  89.1500        15
  89.2000        14
  89.2500        11
  89.3000        11
  89.3500        19
  89.4000        17
  89.4500        18
  89.5000        11
  89.5500         9
  89.6000         5
  89.6500         9
  89.7000         4
  89.7500        18
  89.8000        12
  89.8500        14
  89.9000        10
  89.9500        11
  90.0000         9
  90.0500        10
  90.1000        14
  90.1500        17
  90.2000         8
  90.2500        27
  90.3000        17
  90.3500        16
  90.4000        21
  90.4500        23
  90.5000        17
  90.5500        13
  90.6000        24
  90.6500        19
  90.7000        23
  90.7500        32
  90.8000        31
  90.8500        34
  90.9000        40
  90.9500        42
  91.0000        22
  91.0500        33
  91.1000        44
  91.1500        42
  91.2000        56
  91.2500        60
  91.3000        53
  91.3500        77
  91.4000        65
  91.4500        70
  91.5000        65
  91.5500        78
  91.6000        92
  91.6500        93
  91.7000        92
  91.7500        79
  91.8000        91
  91.8500        81
  91.9000        68
  91.9500        73
  92.0000        65
  92.0500        61
  92.1000        48
  92.1500        58
  92.2000        53
  92.2500        37
  92.3000        37
  92.3500        36
  92.4000        25
  92.4500        29
  92.5000        30
  92.5500        17
  92.6000        17
  92.6500        26
  92.7000        27
  92.7500        12
  92.8000        19
  92.8500        12
  92.9000        10
  92.9500        15
  93.0000        12
  93.0500        12
  93.1000        19
  93.1500        18
  93.2000        17
  93.2500        18
  93.3000        14
  93.3500        17
  93.4000        16
  93.4500        13
  93.5000         9
  93.5500        12
  93.6000        10
  93.6500        15
  93.7000        16
  93.7500        10
  93.8000        18
  93.8500        14
  93.9000        14
  93.9500        15
  94.0000        19
  94.0500        13
  94.1000        10
  94.1500        12
  94.2000        13
  94.2500        11
  94.3000        13
  94.3500         8
  94.4000         8
  94.4500        12
  94.5000        14
  94.5500        14
  94.6000         8
  94.6500         3
  94.7000         7
  94.7500        13
  94.8000         5
  94.8500         9
  94.9000        11
  94.9500        12
  95.0000        17
  95.0500        10
  95.1000        13
  95.1500         7
  95.2000        15
  95.2500        12
  95.3000        10
  95.3500         6
  95.4000         7
  95.4500        11
  95.5000        11
  95.5500        15
  95.6000        15
  95.6500         8
  95.7000        15
  95.7500        16
  95.8000        15
  95.8500        12
  95.9000        12
  95.9500        15
  96.0000         8
  96.0500        13
  96.1000        10
  96.1500        13
  96.2000        11
  96.2500        15
  96.3000        19
  96.3500        18
  96.4000        23
  96.4500        20
  96.5000        20
  96.5500        18
  96.6000        27
  96.6500        28
  96.7000        31
  96.7500        39
  96.8000        28
  96.8500        36
  96.9000        35
  96.9500        28
  97.0000        35
  97.0500        28
  97.1000        27
  97.1500        39
  97.2000        32
  97.2500        44
  97.3000        28
  97.3500        35
  97.4000        22
  97.4500        24
  97.5000        32
  97.5500        27
  97.6000        22
  97.6500        19
  97.7000        24
  97.7500        20
  97.8000        11
  97.8500        10
  97.9000        16
  97.9500        14
  98.0000        12
  98.0500        16
  98.1000        11
  98.1500        11
  98.2000        12
  98.2500        16
  98.3000        11
  98.3500         9
  98.4000         8
  98.4500         5
  98.5000         7
  98.5500        14
  98.6000        10
  98.6500         9
  98.7000         7
  98.7500         8
  98.8000        15
  98.8500         8
  98.9000         9
  98.9500        10
  99.0000        11
  99.0500         7
  99.1000         7
  99.1500        10
  99.2000         8
  99.2500        17
  99.3000         6
  99.3500         7
  99.4000         4
  99.4500        12
  99.5000        11
  99.5500        10
  99.6000         4
  99.6500         8
  99.7000        10
  99.7500         7
  99.8000        10
  99.8500        13
  99.9000        10
  99.9500        15
 100.0000        11
 100.0500        12
 100.1000         7
 100.1500        12
 100.2000         9
 100.2500         7
 100.3000        14
 100.3500        15
 100.4000         9
 100.4500        10
 100.5000         6
 100.5500        17
 100.6000         9
 100.6500         7
 100.7000        10
 100.7500         9
 100.8000         9
 100.8500         9
 100.9000        13
 100.9500        14
 101.0000         5
 101.0500         9
 101.1000         7
 101.1500         9
 101.2000         4
 101.2500         8
 101.3000         4
 101.3500        14
 101.4000        13
 101.4500        11
 101.5000         6
 101.5500        12
 101.6000        12
 101.6500        10
 101.7000        12
 101.7500         9
 101.8000        10
 101.8500        11
 101.9000        10
 101.9500        11
 102.0000        11
 102.0500        18
 102.1000         6
 102.1500         7
 102.2000         7
 102.2500         8
 102.3000        17
 102.3500        11
 102.4000        10
 102.4500        12
 102.5000         8
 102.5500         7
 102.6000         7
 102.6500        11
 102.7000        14
 102.7500        15
 102.8000         8
 102.8500        12
 102.9000        13
 102.9500        11
 103.0000         4
 103.0500         9
 103.1000         9
 103.1500        12
 103.2000        12
 103.2500         9
 103.3000         8
 103.3500        12
 103.4000         9
 103.4500         3
 103.5000        17
 103.5500         7
 103.6000        13
 103.6500        10
 103.7000         9
 103.7500        17
 103.8000        13
 103.8500        12
 103.9000         9
 103.9500         6
 104.0000        11
 104.0500        11
 104.1000        12
 104.1500         9
 104.2000        10
 104.2500         8
 104.3000        15
 104.3500         6
 104.4000         5
 104.4500         7
 104.5000        11
 104.5500        10
 104.6000         9
 104.6500         6
 104.7000         8
 104.7500        10
 104.8000         7
 104.8500         7
 104.9000        12
 104.9500         9
 105.0000        13
 105.0500         7
 105.1000         7
 105.1500         9
 105.2000        13
 105.2500         9
 105.3000         5
 105.3500         8
 105.4000         9
 105.4500        13
 105.5000        10
 105.5500         8
 105.6000        13
 105.6500         8
 105.7000         8
 105.7500         6
 105.8000         7
 105.8500        16
 105.9000         9
 105.9500         7
 106.0000         9
 106.0500         8
 106.1000        13
 106.1500         7
 106.2000        14
 106.2500        11
 106.3000        10
 106.3500         8
 106.4000         8
 106.4500        10
 106.5000        10
 106.5500        10
 106.6000         9
 106.6500        15
 106.7000        10
 106.7500        13
 106.8000         9
 106.8500        12
 106.9000        12
 106.9500         7
 107.0000        13
 107.0500        10
 107.1000         6
 107.1500        14
 107.2000        11
 107.2500         8
 107.3000        17
 107.3500        11
 107.4000        12
 107.4500        13
 107.5000         7
 107.5500         6
 107.6000        10
 107.6500         8
 107.7000         7
 107.7500         8
 107.8000        13
 107.8500         8
 107.9000        11
 107.9500         8
 108.0000         7
 108.0500         9
 108.1000         9
 108.1500         6
 108.2000         7
 108.2500        11
 108.3000        12
 108.3500        12
 108.4000        11
 108.4500         8
 108.5000        10
 108.5500         9
 108.6000        12
 108.6500         8
 108.7000         5
 108.7500        14
 108.8000        13
 108.8500        10
 108.9000         8
 108.9500         6
 109.0000         7
 109.0500        11
 109.1000        14
 109.1500         5
 109.2000        10
 109.2500         7
 109.3000         8
 109.3500         8
 109.4000        14
 109.4500        10
 109.5000        11
 109.5500        10
 109.6000         8
 109.6500         7
 109.7000        12
 109.7500        11
 109.8000        18
 109.8500        13
 109.9000         8
 109.9500         8
 110.0000        12
