  20.0000        11
  20.0500         3
  20.1000         8
  20.1500         8
  20.2000         6
  20.2500         6
  20.3000         8
  20.3500         9
  20.4000         5
  20.4500         3
  20.5000         7
  20.5500         1
  20.6000         5
  20.6500         7
  20.7000         8
  20.7500         6
  20.8000         4
  20.8500         8
  20.9000         7
  20.9500         8
  21.0000         4
  21.0500         3
  21.1000         4
  21.1500         5
  21.2000         8
  21.2500         5
  21.3000         3
  21.3500         7
  21.4000         7
  21.4500         7
  21.5000         4
  21.5500         6
  21.6000         2
  21.6500         6
  21.7000         4
  21.7500        12
  21.8000         8
  21.8500         9
  21.9000         4
  21.9500         8
  22.0000         2
  22.0500         6
  22.1000         5
  22.1500         5
  22.2000         5
  22.2500         3
  22.3000         4
  22.3500         7
  22.4000         4
  22.4500         3
  22.5000         6
  22.5500         7
  22.6000         7
  22.6500         9
  22.7000         8
  22.7500        10
  22.8000         7
  22.8500         4
  22.9000         8
  22.9500         2
  23.0000         6
  23.0500        10
  23.1000         5
  23.1500         3
  23.2000         7
  23.2500         8
  23.3000         4
  23.3500         3
  23.4000         6
  23.4500         5
  23.5000         5
  23.5500        12
  23.6000         8
  23.6500         5
  23.7000         7
  23.7500         5
  23.8000         4
  23.8500         6
  23.9000        11
  23.9500         7
  24.0000        11
  24.0500        11
  24.1000         2
  24.1500         9
  24.2000         7
  24.2500         5
  24.3000         4
  24.3500         4
  24.4000         3
  24.4500         6
  24.5000         9
  24.5500         3
  24.6000         3
  24.6500         8
  24.7000         4
  24.7500         5
  24.8000         7
  24.8500         5
  24.9000         4
  24.9500         3
  25.0000         5
  25.0500         8
  25.1000         7
  25.1500         8
  25.2000         9
  25.2500         2
  25.3000         4
  25.3500         6
  25.4000         7
  25.4500         5
  25.5000         4
  25.5500         5
  25.6000        11
  25.6500         5
  25.7000         5
  25.7500         4
  25.8000        10
  25.8500         5
  25.9000         7
  25.9500         8
  26.0000         9
  26.0500         4
  26.1000         6
  26.1500         8
  26.2000         5
  26.2500         3
  26.3000         9
  26.3500         6
  26.4000         6
  26.4500         8
  26.5000         7
  26.5500         5
  26.6000        12
  26.6500         7
  26.7000         4
  26.7500         3
  26.8000         4
  26.8500         2
  26.9000         5
  26.9500         5
  27.0000         7
  27.0500         4
  27.1000         7
  27.1500         4
  27.2000         5
  27.2500         8
  27.3000         7
  27.3500         3
  27.4000         6
  27.4500         6
  27.5000         4
  27.5500         8
  27.6000         2
  27.6500         9
  27.7000         9
  27.7500         7
  27.8000         3
  27.8500        12
  27.9000         6
  27.9500         7
  28.0000         4
  28.0500         6
  28.1000         4
  28.1500         8
  28.2000         3
  28.2500         8
  28.3000         2
  28.3500         7
  28.4000        10
  28.4500         3
  28.5000         9
  28.5500         7
  28.6000         7
  28.6500         7
  28.7000        10
  28.7500        10
  28.8000         5
  28.8500         6
  28.9000         1
  28.9500         3
  29.0000         2
  29.0500         3
  29.1000         5
  29.1500         8
  29.2000         2
  29.2500         5
  29.3000         8
  29.3500         6
  29.4000        11
  29.4500        13
  29.5000        13
  29.5500         5
  29.6000         7
  29.6500         5
  29.7000         8
  29.7500         6
  29.8000         3
  29.8500         5
  29.9000         2
  29.9500         0
  30.0000         4
  30.0500         5
  30.1000         5
  30.1500         4
  30.2000         4
  30.2500         5
  30.3000         6
  30.3500         8
  30.4000         8
  30.4500         3
  30.5000         2
  30.5500         7
  30.6000         5
  30.6500         5
  30.7000        10
  30.7500         5
  30.8000         8
  30.8500         3
  30.9000        10
  30.9500         9
  31.0000         5
  31.0500         5
  31.1000         6
  31.1500         7
  31.2000        10
  31.2500         6
  31.3000         3
  31.3500         4
  31.4000         5
  31.4500         7
  31.5000         4
  31.5500         8
  31.6000         7
  31.6500         6
  31.7000         7
  31.7500         4
  31.8000         6
  31.8500         9
  31.9000         9
  31.9500         4
  32.0000        10
  32.0500         8
  32.1000         8
  32.1500         8
  32.2000         4
  32.2500         7
  32.3000         6
  32.3500         6
  32.4000         9
  32.4500         4
  32.5000         5
  32.5500         6
  32.6000         4
  32.6500         6
  32.7000         4
  32.7500         5
  32.8000        10
  32.8500         2
  32.9000         9
  32.9500         6
  33.0000         6
  33.0500        10
  33.1000         4
  33.1500         5
  33.2000         5
  33.2500         4
  33.3000         1
  33.3500         4
  33.4000         5
  33.4500         4
  33.5000         7
  33.5500         7
  33.6000         0
  33.6500         5
  33.7000        11
  33.7500        11
  33.8000         8
  33.8500         6
  33.9000         3
  33.9500        10
  34.0000        10
  34.0500         5
  34.1000         4
  34.1500         3
  34.2000         7
  34.2500         6
  34.3000         6
  34.3500         8
  34.4000         6
  34.4500         6
  34.5000         3
  34.5500         5
  34.6000         1
  34.6500         3
  34.7000         3
  34.7500         7
  34.8000         2
  34.8500         3
  34.9000         5
  34.9500         6
  35.0000         6
  35.0500         4
  35.1000        11
  35.1500         5
  35.2000         1
  35.2500         9
  35.3000         7
  35.3500         5
  35.4000         9
  35.4500         6
  35.5000        11
  35.5500         4
  35.6000         8
  35.6500         6
  35.7000         8
  35.7500        12
  35.8000         9
  35.8500         2
  35.9000        11
  35.9500         9
  36.0000         8
  36.0500         5
  36.1000         9
  36.1500         9
  36.2000         5
  36.2500         9
  36.3000         6
  36.3500         5
  36.4000        10
  36.4500         6
  36.5000         4
  36.5500         8
  36.6000        10
  36.6500        10
  36.7000         7
  36.7500         6
  36.8000         4
  36.8500         2
  36.9000         5
  36.9500         9
  37.0000         6
  37.0500         5
  37.1000        15
  37.1500        14
  37.2000        10
  37.2500         7
  37.3000         7
  37.3500         9
  37.4000         5
  37.4500        11
  37.5000         9
  37.5500         6
  37.6000        10
  37.6500         7
  37.7000         5
  37.7500         6
  37.8000         7
  37.8500        11
  37.9000         9
  37.9500         5
  38.0000         7
  38.0500        12
  38.1000         6
  38.1500         7
  38.2000         2
  38.2500        10
  38.3000         8
  38.3500         9
  38.4000         7
  38.4500         6
  38.5000         9
  38.5500         7
  38.6000        12
  38.6500         6
  38.7000         4
  38.7500         4
  38.8000         7
  38.8500         9
  38.9000         4
  38.9500         4
  39.0000         9
  39.0500         7
  39.1000         5
  39.1500         6
  39.2000         8
  39.2500         6
  39.3000         7
  39.3500         3
  39.4000         7
  39.4500         9
  39.5000         6
  39.5500        11
  39.6000         6
  39.6500         8
  39.7000         4
  39.7500        10
  39.8000         7
  39.8500         7
  39.9000        11
  39.9500         7
  40.0000        10
  40.0500         6
  40.1000        12
  40.1500         3
  40.2000         5
  40.2500         2
  40.3000         4
  40.3500         6
  40.4000         4
  40.4500         8
  40.5000         6
  40.5500         9
  40.6000         7
  40.6500         2
  40.7000         7
  40.7500         5
  40.8000         6
  40.8500        11
  40.9000         5
  40.9500         8
  41.0000        12
  41.0500        12
  41.1000         8
  41.1500         6
  41.2000         8
  41.2500        10
  41.3000        10
  41.3500        10
  41.4000         9
  41.4500         7
  41.5000         8
  41.5500         8
  41.6000        15
  41.6500         9
  41.7000         8
  41.7500        11
  41.8000         6
  41.8500        12
  41.9000         6
  41.9500         5
  42.0000        12
  42.0500        14
  42.1000        18
  42.1500        14
  42.2000        20
  42.2500        16
  42.3000        14
  42.3500        10
  42.4000        16
  42.4500        18
  42.5000        19
  42.5500        21
  42.6000        25
  42.6500        15
  42.7000        17
  42.7500        14
  42.8000        16
  42.8500        20
  42.9000        25
  42.9500        35
  43.0000        27
  43.0500        32
  43.1000        33
  43.1500        40
  43.2000        58
  43.2500        64
  43.3000       101
  43.3500       142
  43.4000       206
  43.4500       322
  43.5000       456
  43.5500       624
  43.6000       811
  43.6500       898
  43.7000       991
  43.7500       852
  43.8000       686
  43.8500       583
  43.9000       362
  43.9500       245
  44.0000       166
  44.0500       107
  44.1000        83
  44.1500        56
  44.2000        32
  44.2500        39
  44.3000        44
  44.3500        14
  44.4000        20
  44.4500        22
  44.5000        29
  44.5500        15
  44.6000        10
  44.6500        14
  44.7000        11
  44.7500        13
  44.8000        17
  44.8500        13
  44.9000        11
  44.9500        10
  45.0000         8
  45.0500        13
  45.1000        12
  45.1500         7
  45.2000        17
  45.2500        11
  45.3000         9
  45.3500         9
  45.4000         8
  45.4500         6
  45.5000        18
  45.5500        11
  45.6000         8
  45.6500         7
  45.7000         8
  45.7500        13
  45.8000         7
  45.8500         5
  45.9000        15
  45.9500         8
  46.0000        10
  46.0500         5
  46.1000        11
  46.1500         7
  46.2000        12
  46.2500        10
  46.3000         7
  46.3500         9
  46.4000        15
  46.4500        10
  46.5000         9
  46.5500         6
  46.6000         7
  46.6500         1
  46.7000         7
  46.7500         5
  46.8000        13
  46.8500         8
  46.9000         5
  46.9500         4
  47.0000        12
  47.0500         8
  47.1000         8
  47.1500         9
  47.2000         6
  47.2500         7
  47.3000         7
  47.3500         7
  47.4000         8
  47.4500         6
  47.5000         7
  47.5500         7
  47.6000         4
  47.6500         7
  47.7000        12
  47.7500         7
  47.8000         8
  47.8500         7
  47.9000         3
  47.9500         7
  48.0000         8
  48.0500         7
  48.1000         5
  48.1500         7
  48.2000         6
  48.2500         8
  48.3000         4
  48.3500        14
  48.4000         9
  48.4500         8
  48.5000         9
  48.5500         7
  48.6000         9
  48.6500         5
  48.7000        11
  48.7500         7
  48.8000         9
  48.8500         6
  48.9000        10
  48.9500         8
  49.0000         7
  49.0500        13
  49.1000         4
  49.1500        10
  49.2000        12
  49.2500         8
  49.3000        10
  49.3500        11
  49.4000        14
  49.4500        15
  49.5000        14
  49.5500        11
  49.6000        12
  49.6500        10
  49.7000        13
  49.7500        14
  49.8000        19
  49.8500        21
  49.9000        13
  49.9500        14
  50.0000        19
  50.0500        18
  50.1000        22
  50.1500        28
  50.2000        26
  50.2500        29
  50.3000        33
  50.3500        35
  50.4000        56
  50.4500        56
  50.5000        69
  50.5500       101
  50.6000       147
  50.6500       148
  50.7000       196
  50.7500       258
  50.8000       261
  50.8500       280
  50.9000       294
  50.9500       260
  51.0000       243
  51.0500       210
  51.1000       165
  51.1500       150
  51.2000       111
  51.2500        68
  51.3000        63
  51.3500        43
  51.4000        42
  51.4500        27
  51.5000        32
  51.5500        18
  51.6000        26
  51.6500        17
  51.7000        17
  51.7500        10
  51.8000        20
  51.8500        12
  51.9000        14
  51.9500        10
  52.0000        14
  52.0500         9
  52.1000        14
  52.1500        13
  52.2000         9
  52.2500         9
  52.3000         7
  52.3500         8
  52.4000         1
  52.4500        11
  52.5000         9
  52.5500        10
  52.6000         6
  52.6500        10
  52.7000         6
  52.7500         9
  52.8000         9
  52.8500        10
  52.9000         7
  52.9500        11
  53.0000        12
  53.0500         4
  53.1000         9
  53.1500        11
  53.2000         9
  53.2500         6
  53.3000         3
  53.3500         8
  53.4000         6
  53.4500        10
  53.5000         9
  53.5500         5
  53.6000        16
  53.6500        11
  53.7000        11
  53.7500         2
  53.8000         7
  53.8500         6
  53.9000         6
  53.9500         8
  54.0000         8
  54.0500         2
  54.1000         9
  54.1500         6
  54.2000         3
  54.2500         7
  54.3000         7
  54.3500         6
  54.4000         9
  54.4500         5
  54.5000         5
  54.5500         4
  54.6000         3
  54.6500         5
  54.7000         6
  54.7500         7
  54.8000        15
  54.8500        16
  54.9000         5
  54.9500         3
  55.0000         7
  55.0500         5
  55.1000         8
  55.1500         4
  55.2000         9
  55.2500        10
  55.3000         4
  55.3500         6
  55.4000         8
  55.4500         7
  55.5000         6
  55.5500         4
  55.6000         7
  55.6500         5
  55.7000         5
  55.7500         6
  55.8000         5
  55.8500         7
  55.9000         7
  55.9500         6
  56.0000         6
  56.0500         9
  56.1000         6
  56.1500         9
  56.2000         2
  56.2500         6
  56.3000         6
  56.3500         6
  56.4000         5
  56.4500        13
  56.5000         7
  56.5500         7
  56.6000        12
  56.6500         8
  56.7000         2
  56.7500         4
  56.8000         4
  56.8500         8
  56.9000         7
  56.9500         7
  57.0000         7
  57.0500         4
  57.1000         7
  57.1500         7
  57.2000         6
  57.2500         6
  57.3000         6
  57.3500         9
  57.4000         6
  57.4500         9
  57.5000        11
  57.5500         5
  57.6000         2
  57.6500         3
  57.7000         3
  57.7500         9
  57.8000         5
  57.8500         5
  57.9000         7
  57.9500         6
  58.0000         8
  58.0500         8
  58.1000         9
  58.1500         4
  58.2000         6
  58.2500        10
  58.3000         3
  58.3500         8
  58.4000         2
  58.4500         7
  58.5000        10
  58.5500         6
  58.6000         7
  58.6500         7
  58.7000         4
  58.7500         8
  58.8000         3
  58.8500         4
  58.9000         2
  58.9500         6
  59.0000        13
  59.0500         8
  59.1000        10
  59.1500        10
  59.2000         4
  59.2500        10
  59.3000         5
  59.3500         6
  59.4000         5
  59.4500         7
  59.5000         6
  59.5500         9
  59.6000         7
  59.6500         7
  59.7000         5
  59.7500         6
  59.8000         7
  59.8500         4
  59.9000         3
  59.9500         5
  60.0000         4
  60.0500         3
  60.1000         9
  60.1500         9
  60.2000         6
  60.2500         9
  60.3000         4
  60.3500         3
  60.4000         5
  60.4500         9
  60.5000        10
  60.5500         4
  60.6000         4
  60.6500         4
  60.7000         5
  60.7500         3
  60.8000         6
  60.8500         9
  60.9000         8
  60.9500        11
  61.0000         4
  61.0500         6
  61.1000         9
  61.1500         9
  61.2000         8
  61.2500         1
  61.3000         4
  61.3500         3
  61.4000         8
  61.4500         8
  61.5000         5
  61.5500         6
  61.6000         9
  61.6500         3
  61.7000         7
  61.7500         9
  61.8000         8
  61.8500         7
  61.9000         9
  61.9500         5
  62.0000         4
  62.0500         9
  62.1000         7
  62.1500         7
  62.2000         7
  62.2500         7
  62.3000        15
  62.3500         6
  62.4000         8
  62.4500         5
  62.5000         8
  62.5500         4
  62.6000        10
  62.6500         8
  62.7000         6
  62.7500         9
  62.8000         7
  62.8500         8
  62.9000         8
  62.9500        13
  63.0000        11
  63.0500         7
  63.1000         8
  63.1500         6
  63.2000         7
  63.2500         7
  63.3000        11
  63.3500        10
  63.4000         7
  63.4500         4
  63.5000         4
  63.5500         4
  63.6000         5
  63.6500         7
  63.7000         5
  63.7500         9
  63.8000        11
  63.8500        12
  63.9000         6
  63.9500         4
  64.0000         4
  64.0500         7
  64.1000         6
  64.1500         7
  64.2000         7
  64.2500         8
  64.3000         5
  64.3500         7
  64.4000         7
  64.4500        15
  64.5000         4
  64.5500         9
  64.6000         4
  64.6500         5
  64.7000         5
  64.7500         4
  64.8000         5
  64.8500         8
  64.9000         5
  64.9500         9
  65.0000         6
  65.0500        14
  65.1000         5
  65.1500         6
  65.2000         5
  65.2500         9
  65.3000         7
  65.3500         9
  65.4000         5
  65.4500         7
  65.5000         7
  65.5500         4
  65.6000         8
  65.6500         3
  65.7000         7
  65.7500         4
  65.8000         4
  65.8500         6
  65.9000        11
  65.9500        10
  66.0000         2
  66.0500         4
  66.1000         7
  66.1500         5
  66.2000         6
  66.2500         9
  66.3000         5
  66.3500         6
  66.4000         9
  66.4500         1
  66.5000         6
  66.5500         7
  66.6000         7
  66.6500        11
  66.7000         6
  66.7500         5
  66.8000         7
  66.8500         2
  66.9000         4
  66.9500         5
  67.0000         8
  67.0500         6
  67.1000         7
  67.1500         5
  67.2000         5
  67.2500         7
  67.3000         8
  67.3500         9
  67.4000         6
  67.4500         5
  67.5000         5
  67.5500         6
  67.6000         4
  67.6500         5
  67.7000         5
  67.7500         7
  67.8000         7
  67.8500         7
  67.9000         8
  67.9500         8
  68.0000         4
  68.0500         7
  68.1000         7
  68.1500         6
  68.2000         5
  68.2500         6
  68.3000         3
  68.3500         5
  68.4000         4
  68.4500         7
  68.5000         6
  68.5500        13
  68.6000         6
  68.6500         5
  68.7000         5
  68.7500         6
  68.8000         1
  68.8500         7
  68.9000         5
  68.9500         6
  69.0000        11
  69.0500         7
  69.1000        13
  69.1500         7
  69.2000         4
  69.2500        10
  69.3000         3
  69.3500         5
  69.4000         4
  69.4500         7
  69.5000         8
  69.5500         5
  69.6000         3
  69.6500         6
  69.7000         6
  69.7500         3
  69.8000        10
  69.8500         7
  69.9000         6
  69.9500         7
  70.0000         3
  70.0500         5
  70.1000         3
  70.1500        10
  70.2000         4
  70.2500         4
  70.3000         4
  70.3500         5
  70.4000        12
  70.4500         5
  70.5000        13
  70.5500         7
  70.6000         7
  70.6500         5
  70.7000         2
  70.7500        10
  70.8000         8
  70.8500         4
  70.9000         5
  70.9500         6
  71.0000        11
  71.0500        10
  71.1000         3
  71.1500         4
  71.2000         7
  71.2500         5
  71.3000         8
  71.3500         7
  71.4000         8
  71.4500        13
  71.5000         7
  71.5500        11
  71.6000        11
  71.6500         3
  71.7000         4
  71.7500         7
  71.8000         4
  71.8500         7
  71.9000        11
  71.9500         8
  72.0000        10
  72.0500         6
  72.1000         4
  72.1500         5
  72.2000         9
  72.2500         1
  72.3000         9
  72.3500        10
  72.4000         8
  72.4500        10
  72.5000         2
  72.5500         7
  72.6000        12
  72.6500        11
  72.7000         7
  72.7500         4
  72.8000         6
  72.8500         5
  72.9000         8
  72.9500         7
  73.0000        11
  73.0500         8
  73.1000         6
  73.1500         5
  73.2000        10
  73.2500         9
  73.3000         6
  73.3500        13
  73.4000         6
  73.4500        10
  73.5000         8
  73.5500         9
  73.6000         6
  73.6500        13
  73.7000        13
  73.7500        10
  73.8000        13
  73.8500        12
  73.9000        14
  73.9500        14
  74.0000        10
  74.0500        15
  74.1000        21
  74.1500        21
  74.2000        23
  74.2500        16
  74.3000        31
  74.3500        35
  74.4000        40
  74.4500        49
  74.5000        60
  74.5500        74
  74.6000        80
  74.6500       101
  74.7000       101
  74.7500       118
  74.8000       134
  74.8500       121
  74.9000       112
  74.9500       123
  75.0000        95
  75.0500        86
  75.1000        81
  75.1500        66
  75.2000        49
  75.2500        46
  75.3000        38
  75.3500        35
  75.4000        23
  75.4500        17
  75.5000        17
  75.5500        18
  75.6000        14
  75.6500        25
  75.7000        14
  75.7500        11
  75.8000         9
  75.8500        18
  75.9000         4
  75.9500        17
  76.0000        11
  76.0500         8
  76.1000        11
  76.1500        15
  76.2000         9
  76.2500        12
  76.3000         4
  76.3500         5
  76.4000         8
  76.4500        12
  76.5000         9
  76.5500        13
  76.6000         6
  76.6500         6
  76.7000         9
  76.7500         5
  76.8000         7
  76.8500         6
  76.9000         8
  76.9500         6
  77.0000         9
  77.0500         8
  77.1000         4
  77.1500         8
  77.2000        13
  77.2500         6
  77.3000         7
  77.3500         7
  77.4000         8
  77.4500         8
  77.5000         7
  77.5500         9
  77.6000         4
  77.6500         3
  77.7000         3
  77.7500         4
  77.8000         7
  77.8500         5
  77.9000         6
  77.9500         7
  78.0000         7
  78.0500         6
  78.1000        10
  78.1500         7
  78.2000         9
  78.2500         6
  78.3000         7
  78.3500         5
  78.4000         5
  78.4500         6
  78.5000         3
  78.5500         6
  78.6000         4
  78.6500         9
  78.7000         5
  78.7500         4
  78.8000         6
  78.8500         8
  78.9000         2
  78.9500        11
  79.0000         4
  79.0500        10
  79.1000         2
  79.1500         8
  79.2000         8
  79.2500        10
  79.3000        10
  79.3500         3
  79.4000         6
  79.4500         5
  79.5000         6
  79.5500         7
  79.6000        13
  79.6500         7
  79.7000         7
  79.7500         7
  79.8000        11
  79.8500         4
  79.9000         3
  79.9500         5
  80.0000        11
  80.0500        10
  80.1000         6
  80.1500         8
  80.2000         3
  80.2500        12
  80.3000         6
  80.3500         9
  80.4000         6
  80.4500        11
  80.5000         7
  80.5500         3
  80.6000         6
  80.6500        10
  80.7000         7
  80.7500         9
  80.8000         4
  80.8500         7
  80.9000         6
  80.9500         4
  81.0000         3
  81.0500         5
  81.1000         8
  81.1500         4
  81.2000        14
  81.2500         7
  81.3000         5
  81.3500        10
  81.4000        11
  81.4500         9
  81.5000         3
  81.5500         3
  81.6000         6
  81.6500         8
  81.7000         6
  81.7500         6
  81.8000         8
  81.8500         3
  81.9000         2
  81.9500         3
  82.0000         7
  82.0500        10
  82.1000         5
  82.1500         5
  82.2000         9
  82.2500         9
  82.3000         4
  82.3500         5
  82.4000         9
  82.4500        11
  82.5000         5
  82.5500         8
  82.6000         9
  82.6500         6
  82.7000         9
  82.7500         6
  82.8000        10
  82.8500         6
  82.9000        14
  82.9500         8
  83.0000         9
  83.0500         6
  83.1000        12
  83.1500        12
  83.2000         8
  83.2500         6
  83.3000         6
  83.3500         5
  83.4000         6
  83.4500        10
  83.5000        14
  83.5500         8
  83.6000         7
  83.6500         8
  83.7000         8
  83.7500         8
  83.8000         6
  83.8500        12
  83.9000         8
  83.9500         3
  84.0000         7
  84.0500         4
  84.1000         8
  84.1500         9
  84.2000         4
  84.2500         9
  84.3000         8
  84.3500         5
  84.4000         9
  84.4500         7
  84.5000         5
  84.5500         3
  84.6000         9
  84.6500        11
  84.7000         3
  84.7500         9
  84.8000         7
  84.8500         4
  84.9000         8
  84.9500        10
  85.0000         7
  85.0500         9
  85.1000         7
  85.1500         7
  85.2000        12
  85.2500         6
  85.3000         9
  85.3500         4
  85.4000        15
  85.4500        14
  85.5000         7
  85.5500         7
  85.6000         8
  85.6500         3
  85.7000         9
  85.7500         7
  85.8000         9
  85.8500         9
  85.9000        11
  85.9500         4
  86.0000        10
  86.0500         8
  86.1000         6
  86.1500        10
  86.2000         5
  86.2500         6
  86.3000        13
  86.3500        10
  86.4000         3
  86.4500         9
  86.5000         7
  86.5500         8
  86.6000        10
  86.6500         7
  86.7000        14
  86.7500         7
  86.8000         9
  86.8500         4
  86.9000        10
  86.9500         9
  87.0000         8
  87.0500         7
  87.1000        12
  87.1500        13
  87.2000         7
  87.2500         9
  87.3000         8
  87.3500        14
  87.4000         8
  87.4500        12
  87.5000        10
  87.5500        13
  87.6000         3
  87.6500        10
  87.7000        12
  87.7500         5
  87.8000         7
  87.8500         8
  87.9000         9
  87.9500         7
  88.0000        11
  88.0500         7
  88.1000         6
  88.1500         6
  88.2000        13
  88.2500         7
  88.3000        10
  88.3500        12
  88.4000         9
  88.4500         3
  88.5000         9
  88.5500         8
  88.6000         7
  88.6500         5
  88.7000         4
  88.7500        10
  88.8000         9
  88.8500         7
  88.9000         9
  88.9500        11
  89.0000         6
  89.0500         9
  89.1000        11
  89.1500        10
  89.2000        14
  89.2500         7
  89.3000        12
  89.3500        10
  89.4000        12
  89.4500         8
  89.5000        14
  89.5500        12
  89.6000        10
  89.6500         9
  89.7000        14
  89.7500         8
  89.8000        14
  89.8500        20
  89.9000        15
  89.9500        17
  90.0000        15
  90.0500        22
  90.1000        24
  90.1500        33
  90.2000        31
  90.2500        29
  90.3000        30
  90.3500        62
  90.4000        51
  90.4500        57
  90.5000        65
  90.5500        83
  90.6000        62
  90.6500        76
  90.7000       107
  90.7500       119
  90.8000       112
  90.8500       107
  90.9000        94
  90.9500        91
  91.0000        98
  91.0500       102
  91.1000       100
  91.1500        72
  91.2000        73
  91.2500        69
  91.3000        49
  91.3500        56
  91.4000        37
  91.4500        42
  91.5000        36
  91.5500        31
  91.6000        31
  91.6500        21
  91.7000        22
  91.7500        16
  91.8000        18
  91.8500        14
  91.9000        17
  91.9500        11
  92.0000        14
  92.0500        11
  92.1000        11
  92.1500        12
  92.2000        13
  92.2500        18
  92.3000        12
  92.3500        12
  92.4000        14
  92.4500         5
  92.5000        10
  92.5500         8
  92.6000         8
  92.6500        12
  92.7000         6
  92.7500         6
  92.8000         7
  92.8500         5
  92.9000        10
  92.9500         9
  93.0000         7
  93.0500         5
  93.1000        11
  93.1500        10
  93.2000         6
  93.2500         9
  93.3000         5
  93.3500         9
  93.4000         5
  93.4500         5
  93.5000         7
  93.5500         7
  93.6000        12
  93.6500        10
  93.7000        10
  93.7500        11
  93.8000         6
  93.8500         9
  93.9000        10
  93.9500        11
  94.0000         5
  94.0500         9
  94.1000        10
  94.1500         8
  94.2000         7
  94.2500        11
  94.3000         6
  94.3500        12
  94.4000        11
  94.4500         8
  94.5000         9
  94.5500         1
  94.6000        11
  94.6500         5
  94.7000         6
  94.7500         9
  94.8000        11
  94.8500         7
  94.9000        14
  94.9500        10
  95.0000         2
  95.0500        13
  95.1000        14
  95.1500        15
  95.2000         7
  95.2500        10
  95.3000         6
  95.3500        14
  95.4000        10
  95.4500        11
  95.5000         8
  95.5500        12
  95.6000        17
  95.6500        19
  95.7000        15
  95.7500        20
  95.8000        24
  95.8500        33
  95.9000        31
  95.9500        32
  96.0000        36
  96.0500        37
  96.1000        47
  96.1500        40
  96.2000        42
  96.2500        44
  96.3000        42
  96.3500        37
  96.4000        31
  96.4500        29
  96.5000        22
  96.5500        26
  96.6000        19
  96.6500        19
  96.7000        12
  96.7500        19
  96.8000        13
  96.8500        16
  96.9000        20
  96.9500         6
  97.0000         8
  97.0500         7
  97.1000         4
  97.1500        11
  97.2000        10
  97.2500         5
  97.3000         8
  97.3500         4
  97.4000        12
  97.4500        11
  97.5000        11
  97.5500         6
  97.6000        12
  97.6500         9
  97.7000         7
  97.7500         6
  97.8000         4
  97.8500         6
  97.9000         7
  97.9500        12
  98.0000         6
  98.0500        10
  98.1000         8
  98.1500         9
  98.2000         5
  98.2500         9
  98.3000         9
  98.3500         5
  98.4000         5
  98.4500         8
  98.5000        10
  98.5500         8
  98.6000         8
  98.6500         6
  98.7000        14
  98.7500         9
  98.8000         7
  98.8500        15
  98.9000         8
  98.9500        12
  99.0000         6
  99.0500         6
  99.1000         6
  99.1500         7
  99.2000        11
  99.2500         3
  99.3000         4
  99.3500         6
  99.4000         8
  99.4500         7
  99.5000        10
  99.5500         6
  99.6000         2
  99.6500         5
  99.7000         8
  99.7500         3
  99.8000         4
  99.8500         3
  99.9000         6
  99.9500         4
 100.0000         4
 100.0500         4
 100.1000        10
 100.1500         6
 100.2000         6
 100.2500        11
 100.3000         7
 100.3500         8
 100.4000         7
 100.4500         8
 100.5000         6
 100.5500         6
 100.6000         7
 100.6500         5
 100.7000         9
 100.7500         8
 100.8000         5
 100.8500         8
 100.9000         4
 100.9500         9
 101.0000         9
 101.0500         8
 101.1000         3
 101.1500         3
 101.2000         6
 101.2500         4
 101.3000         4
 101.3500         8
 101.4000         9
 101.4500        12
 101.5000        10
 101.5500         4
 101.6000         8
 101.6500         6
 101.7000        10
 101.7500        12
 101.8000         4
 101.8500         4
 101.9000         6
 101.9500         5
 102.0000         3
 102.0500         5
 102.1000        10
 102.1500        10
 102.2000         6
 102.2500        10
 102.3000         7
 102.3500        10
 102.4000         5
 102.4500         4
 102.5000         5
 102.5500         8
 102.6000         7
 102.6500         4
 102.7000         5
 102.7500         9
 102.8000         7
 102.8500         6
 102.9000         8
 102.9500         6
 103.0000         6
 103.0500         9
 103.1000         3
 103.1500        11
 103.2000        12
 103.2500         7
 103.3000         6
 103.3500         6
 103.4000         5
 103.4500        12
 103.5000         2
 103.5500         4
 103.6000         6
 103.6500         9
 103.7000         4
 103.7500         7
 103.8000         7
 103.8500         8
 103.9000        11
 103.9500         3
 104.0000         6
 104.0500         8
 104.1000         5
 104.1500         6
 104.2000         5
 104.2500        13
 104.3000         3
 104.3500         5
 104.4000         4
 104.4500         6
 104.5000        10
 104.5500         3
 104.6000         6
 104.6500        10
 104.7000         1
 104.7500         5
 104.8000        10
 104.8500         7
 104.9000         6
 104.9500         6
 105.0000         8
 105.0500         6
 105.1000         3
 105.1500         8
 105.2000         1
 105.2500         6
 105.3000         4
 105.3500         4
 105.4000         9
 105.4500         7
 105.5000         4
 105.5500         8
 105.6000         9
 105.6500        13
 105.7000         6
 105.7500         8
 105.8000         5
 105.8500         8
 105.9000         8
 105.9500         3
 106.0000         5
 106.0500         7
 106.1000         7
 106.1500         4
 106.2000         6
 106.2500         9
 106.3000         6
 106.3500         5
 106.4000         4
 106.4500         2
 106.5000        12
 106.5500         4
 106.6000         7
 106.6500         5
 106.7000         7
 106.7500        11
 106.8000         9
 106.8500         7
 106.9000         8
 106.9500         1
 107.0000         7
 107.0500         4
 107.1000         9
 107.1500         5
 107.2000        10
 107.2500         8
 107.3000         4
 107.3500         3
 107.4000         3
 107.4500         8
 107.5000         6
 107.5500         4
 107.6000         8
 107.6500         9
 107.7000         2
 107.7500         4
 107.8000        14
 107.8500        11
 107.9000         9
 107.9500         5
 108.0000         4
 108.0500         8
 108.1000        13
 108.1500         2
 108.2000        10
 108.2500         6
 108.3000         8
 108.3500         4
 108.4000         3
 108.4500        11
 108.5000         5
 108.5500         8
 108.6000         7
 108.6500         9
 108.7000         6
 108.7500         9
 108.8000         5
 108.8500        10
 108.9000         7
 108.9500        11
 109.0000         4
 109.0500         7
 109.1000         5
 109.1500         8
 109.2000         8
 109.2500         5
 109.3000         5
 109.3500         3
 109.4000         3
 109.4500         2
 109.5000         6
 109.5500         7
 109.6000         4
 109.6500         8
 109.7000         4
 109.7500         7
 109.8000        10
 109.8500         7
 109.9000         5
 109.9500         6
 110.0000         4
