  20.0000         0
  20.0500         0
  20.1000         1
  20.1500         0
  20.2000         1
  20.2500         2
  20.3000         2
  20.3500         5
  20.4000         3
  20.4500         2
  20.5000         3
  20.5500         1
  20.6000         0
  20.6500         2
  20.7000         0
  20.7500         1
  20.8000         0
  20.8500         1
  20.9000         1
  20.9500         6
  21.0000         0
  21.0500         0
  21.1000         0
  21.1500         1
  21.2000         4
  21.2500         0
  21.3000         0
  21.3500         2
  21.4000         3
  21.4500         1
  21.5000         1
  21.5500         1
  21.6000         0
  21.6500         4
  21.7000         5
  21.7500         1
  21.8000         1
  21.8500         1
  21.9000         1
  21.9500         1
  22.0000         1
  22.0500         1
  22.1000         5
  22.1500         2
  22.2000         2
  22.2500         0
  22.3000         0
  22.3500         0
  22.4000         1
  22.4500         1
  22.5000         2
  22.5500         3
  22.6000         3
  22.6500         3
  22.7000         0
  22.7500         1
  22.8000         2
  22.8500         0
  22.9000         2
  22.9500         0
  23.0000         1
  23.0500         0
  23.1000         4
  23.1500         1
  23.2000         1
  23.2500         0
  23.3000         0
  23.3500         0
  23.4000         1
  23.4500         1
  23.5000         3
  23.5500         2
  23.6000         1
  23.6500         4
  23.7000         1
  23.7500         2
  23.8000         0
  23.8500         1
  23.9000         0
  23.9500         2
  24.0000         2
  24.0500         1
  24.1000         1
  24.1500         2
  24.2000         0
  24.2500         0
  24.3000         3
  24.3500         2
  24.4000         0
  24.4500         3
  24.5000         1
  24.5500         4
  24.6000         4
  24.6500         0
  24.7000         1
  24.7500         2
  24.8000         2
  24.8500         1
  24.9000         3
  24.9500         0
  25.0000         1
  25.0500         1
  25.1000         1
  25.1500         3
  25.2000         1
  25.2500         1
  25.3000         0
  25.3500         2
  25.4000         2
  25.4500         0
  25.5000         2
  25.5500         4
  25.6000         3
  25.6500         2
  25.7000         2
  25.7500         2
  25.8000         1
  25.8500         2
  25.9000         1
  25.9500         1
  26.0000         0
  26.0500         2
  26.1000         2
  26.1500         0
  26.2000         2
  26.2500         1
  26.3000         0
  26.3500         1
  26.4000         0
  26.4500         1
  26.5000         2
  26.5500         1
  26.6000         2
  26.6500         0
  26.7000         2
  26.7500         1
  26.8000         0
  26.8500         2
  26.9000         2
  26.9500         4
  27.0000         2
  27.0500         1
  27.1000         0
  27.1500         3
  27.2000         3
  27.2500         3
  27.3000         3
  27.3500         3
  27.4000         0
  27.4500         1
  27.5000         0
  27.5500         0
  27.6000         0
  27.6500         0
  27.7000         0
  27.7500         1
  27.8000         4
  27.8500         2
  27.9000         1
  27.9500         1
  28.0000         0
  28.0500         2
  28.1000         3
  28.1500         0
  28.2000         1
  28.2500         0
  28.3000         2
  28.3500         0
  28.4000         1
  28.4500         0
  28.5000         1
  28.5500         1
  28.6000         2
  28.6500         0
  28.7000         2
  28.7500         1
  28.8000         1
  28.8500         4
  28.9000         0
  28.9500         2
  29.0000         0
  29.0500         2
  29.1000         1
  29.1500         1
  29.2000         3
  29.2500         1
  29.3000         0
  29.3500         1
  29.4000         0
  29.4500         1
  29.5000         2
  29.5500         2
  29.6000         1
  29.6500         1
  29.7000         3
  29.7500         3
  29.8000         0
  29.8500         0
  29.9000         1
  29.9500         3
  30.0000         0
  30.0500         0
  30.1000         2
  30.1500         0
  30.2000         2
  30.2500         1
  30.3000         1
  30.3500         0
  30.4000         1
  30.4500         1
  30.5000         2
  30.5500         0
  30.6000         2
  30.6500         1
  30.7000         0
  30.7500         0
  30.8000         3
  30.8500         1
  30.9000         2
  30.9500         0
  31.0000         0
  31.0500         0
  31.1000         0
  31.1500         1
  31.2000         0
  31.2500         0
  31.3000         1
  31.3500         0
  31.4000         1
  31.4500         2
  31.5000         2
  31.5500         0
  31.6000         3
  31.6500         1
  31.7000         2
  31.7500         0
  31.8000         1
  31.8500         1
  31.9000         0
  31.9500         1
  32.0000         0
  32.0500         0
  32.1000         0
  32.1500         1
  32.2000         0
  32.2500         0
  32.3000         1
  32.3500         0
  32.4000         1
  32.4500         1
  32.5000         2
  32.5500         0
  32.6000         2
  32.6500         2
  32.7000         0
  32.7500         3
  32.8000         2
  32.8500         2
  32.9000         0
  32.9500         1
  33.0000         0
  33.0500         3
  33.1000         1
  33.1500         2
  33.2000         3
  33.2500         4
  33.3000         2
  33.3500         1
  33.4000         0
  33.4500         0
  33.5000         1
  33.5500         0
  33.6000         1
  33.6500         1
  33.7000         1
  33.7500         0
  33.8000         3
  33.8500         1
  33.9000         2
  33.9500         0
  34.0000         0
  34.0500         1
  34.1000         0
  34.1500         1
  34.2000         0
  34.2500         2
  34.3000         1
  34.3500         1
  34.4000         1
  34.4500         2
  34.5000         1
  34.5500         3
  34.6000         4
  34.6500         1
  34.7000         2
  34.7500         5
  34.8000         2
  34.8500         1
  34.9000         1
  34.9500         2
  35.0000         0
  35.0500         0
  35.1000         1
  35.1500         1
  35.2000         1
  35.2500         1
  35.3000         0
  35.3500         1
  35.4000         0
  35.4500         1
  35.5000         0
  35.5500         2
  35.6000         2
  35.6500         1
  35.7000         0
  35.7500         1
  35.8000         1
  35.8500         1
  35.9000         1
  35.9500         1
  36.0000         0
  36.0500         0
  36.1000         2
  36.1500         0
  36.2000         1
  36.2500         2
  36.3000         0
  36.3500         3
  36.4000         1
  36.4500         4
  36.5000         2
  36.5500         1
  36.6000         2
  36.6500         3
  36.7000         3
  36.7500         2
  36.8000         1
  36.8500         0
  36.9000         0
  36.9500         0
  37.0000         1
  37.0500         3
  37.1000         7
  37.1500         2
  37.2000         3
  37.2500         4
  37.3000         1
  37.3500         3
  37.4000         3
  37.4500         8
  37.5000         3
  37.5500         8
  37.6000         3
  37.6500         1
  37.7000         3
  37.7500         5
  37.8000         8
  37.8500         7
  37.9000         8
  37.9500         9
  38.0000        15
  38.0500         8
  38.1000        22
  38.1500        37
  38.2000        62
  38.2500        98
  38.3000       220
  38.3500       336
  38.4000       452
  38.4500       479
  38.5000       411
  38.5500       331
  38.6000       184
  38.6500        89
  38.7000        43
  38.7500        33
  38.8000        12
  38.8500         8
  38.9000         5
  38.9500         9
  39.0000         5
  39.0500         2
  39.1000         1
  39.1500         2
  39.2000         4
  39.2500         5
  39.3000         3
  39.3500         0
  39.4000         0
  39.4500         5
  39.5000         2
  39.5500         1
  39.6000         3
  39.6500         2
  39.7000         2
  39.7500         1
  39.8000         3
  39.8500         2
  39.9000         1
  39.9500         1
  40.0000         1
  40.0500         1
  40.1000         2
  40.1500         5
  40.2000         0
  40.2500         2
  40.3000         3
  40.3500         1
  40.4000         3
  40.4500         2
  40.5000         0
  40.5500         1
  40.6000         2
  40.6500         2
  40.7000         2
  40.7500         0
  40.8000         2
  40.8500         1
  40.9000         2
  40.9500         1
  41.0000         2
  41.0500         1
  41.1000         1
  41.1500         2
  41.2000         1
  41.2500         3
  41.3000         1
  41.3500         0
  41.4000         0
  41.4500         1
  41.5000         1
  41.5500         2
  41.6000         0
  41.6500         1
  41.7000         1
  41.7500         1
  41.8000         3
  41.8500         0
  41.9000         1
  41.9500         0
  42.0000         0
  42.0500         1
  42.1000         2
  42.1500         0
  42.2000         2
  42.2500         1
  42.3000         2
  42.3500         0
  42.4000         0
  42.4500         1
  42.5000         0
  42.5500         1
  42.6000         0
  42.6500         0
  42.7000         1
  42.7500         0
  42.8000         0
  42.8500         0
  42.9000         2
  42.9500         0
  43.0000         1
  43.0500         0
  43.1000         1
  43.1500         1
  43.2000         0
  43.2500         1
  43.3000         0
  43.3500         1
  43.4000         2
  43.4500         0
  43.5000         3
  43.5500         2
  43.6000         2
  43.6500         0
  43.7000         0
  43.7500         2
  43.8000         0
  43.8500         0
  43.9000         1
  43.9500         1
  44.0000         2
  44.0500         1
  44.1000         1
  44.1500         1
  44.2000         1
  44.2500         2
  44.3000         0
  44.3500         2
  44.4000         1
  44.4500         2
  44.5000         0
  44.5500         1
  44.6000         1
  44.6500         3
  44.7000         1
  44.7500         0
  44.8000         2
  44.8500         1
  44.9000         1
  44.9500         2
  45.0000         1
  45.0500         1
  45.1000         0
  45.1500         1
  45.2000         1
  45.2500         0
  45.3000         0
  45.3500         1
  45.4000         1
  45.4500         0
  45.5000         2
  45.5500         0
  45.6000         0
  45.6500         1
  45.7000         0
  45.7500         4
  45.8000         0
  45.8500         1
  45.9000         0
  45.9500         1
  46.0000         0
  46.0500         0
  46.1000         1
  46.1500         0
  46.2000         1
  46.2500         0
  46.3000         2
  46.3500         1
  46.4000         1
  46.4500         0
  46.5000         1
  46.5500         0
  46.6000         0
  46.6500         1
  46.7000         1
  46.7500         1
  46.8000         1
  46.8500         0
  46.9000         1
  46.9500         0
  47.0000         0
  47.0500         1
  47.1000         0
  47.1500         0
  47.2000         1
  47.2500         0
  47.3000         0
  47.3500         1
  47.4000         0
  47.4500         0
  47.5000         0
  47.5500         0
  47.6000         0
  47.6500         2
  47.7000         1
  47.7500         2
  47.8000         2
  47.8500         1
  47.9000         1
  47.9500         0
  48.0000         1
  48.0500         0
  48.1000         2
  48.1500         0
  48.2000         1
  48.2500         0
  48.3000         1
  48.3500         1
  48.4000         0
  48.4500         3
  48.5000         1
  48.5500         1
  48.6000         1
  48.6500         2
  48.7000         1
  48.7500         0
  48.8000         0
  48.8500         2
  48.9000         0
  48.9500         0
  49.0000         1
  49.0500         1
  49.1000         1
  49.1500         1
  49.2000         1
  49.2500         0
  49.3000         3
  49.3500         1
  49.4000         0
  49.4500         1
  49.5000         0
  49.5500         1
  49.6000         0
  49.6500         1
  49.7000         0
  49.7500         0
  49.8000         3
  49.8500         0
  49.9000         1
  49.9500         0
  50.0000         0
  50.0500         1
  50.1000         0
  50.1500         0
  50.2000         1
  50.2500         0
  50.3000         1
  50.3500         1
  50.4000         0
  50.4500         0
  50.5000         3
  50.5500         1
  50.6000         1
  50.6500         0
  50.7000         0
  50.7500         0
  50.8000         2
  50.8500         3
  50.9000         1
  50.9500         1
  51.0000         0
  51.0500         1
  51.1000         1
  51.1500         0
  51.2000         0
  51.2500         1
  51.3000         0
  51.3500         1
  51.4000         3
  51.4500         0
  51.5000         0
  51.5500         0
  51.6000         0
  51.6500         1
  51.7000         0
  51.7500         1
  51.8000         1
  51.8500         1
  51.9000         1
  51.9500         1
  52.0000         1
  52.0500         2
  52.1000         2
  52.1500         2
  52.2000         0
  52.2500         1
  52.3000         2
  52.3500         0
  52.4000         0
  52.4500         1
  52.5000         1
  52.5500         2
  52.6000         3
  52.6500         2
  52.7000         0
  52.7500         1
  52.8000         4
  52.8500         1
  52.9000         0
  52.9500         0
  53.0000         1
  53.0500         1
  53.1000         0
  53.1500         0
  53.2000         1
  53.2500         0
  53.3000         1
  53.3500         0
  53.4000         0
  53.4500         1
  53.5000         0
  53.5500         1
  53.6000         3
  53.6500         2
  53.7000         0
  53.7500         0
  53.8000         0
  53.8500         1
  53.9000         1
  53.9500         2
  54.0000         3
  54.0500         3
  54.1000         5
  54.1500         2
  54.2000         2
  54.2500         2
  54.3000         1
  54.3500         0
  54.4000         1
  54.4500         0
  54.5000         2
  54.5500         1
  54.6000         0
  54.6500         1
  54.7000         2
  54.7500         2
  54.8000         2
  54.8500         4
  54.9000         0
  54.9500         3
  55.0000         0
  55.0500         1
  55.1000         5
  55.1500         3
  55.2000         6
  55.2500         7
  55.3000         4
  55.3500        10
  55.4000        39
  55.4500        67
  55.5000        98
  55.5500        93
  55.6000        98
  55.6500        74
  55.7000        50
  55.7500        52
  55.8000        22
  55.8500        20
  55.9000         8
  55.9500         4
  56.0000         1
  56.0500         5
  56.1000         1
  56.1500         2
  56.2000         2
  56.2500         2
  56.3000         2
  56.3500         1
  56.4000         0
  56.4500         1
  56.5000         1
  56.5500         3
  56.6000         2
  56.6500         0
  56.7000         0
  56.7500         1
  56.8000         3
  56.8500         1
  56.9000         1
  56.9500         1
  57.0000         3
  57.0500         1
  57.1000         2
  57.1500         1
  57.2000         0
  57.2500         0
  57.3000         0
  57.3500         1
  57.4000         0
  57.4500         1
  57.5000         1
  57.5500         1
  57.6000         2
  57.6500         0
  57.7000         0
  57.7500         0
  57.8000         0
  57.8500         0
  57.9000         2
  57.9500         0
  58.0000         1
  58.0500         1
  58.1000         1
  58.1500         2
  58.2000         0
  58.2500         1
  58.3000         1
  58.3500         0
  58.4000         1
  58.4500         2
  58.5000         3
  58.5500         3
  58.6000         0
  58.6500         3
  58.7000         1
  58.7500         1
  58.8000         0
  58.8500         1
  58.9000         1
  58.9500         1
  59.0000         2
  59.0500         1
  59.1000         1
  59.1500         1
  59.2000         1
  59.2500         0
  59.3000         0
  59.3500         0
  59.4000         1
  59.4500         2
  59.5000         0
  59.5500         0
  59.6000         2
  59.6500         2
  59.7000         0
  59.7500         1
  59.8000         3
  59.8500         1
  59.9000         0
  59.9500         0
  60.0000         0
  60.0500         1
  60.1000         1
  60.1500         1
  60.2000         0
  60.2500         3
  60.3000         0
  60.3500         2
  60.4000         1
  60.4500         0
  60.5000         1
  60.5500         1
  60.6000         1
  60.6500         3
  60.7000         0
  60.7500         2
  60.8000         2
  60.8500         2
  60.9000         1
  60.9500         1
  61.0000         1
  61.0500         0
  61.1000         2
  61.1500         1
  61.2000         2
  61.2500         0
  61.3000         1
  61.3500         1
  61.4000         0
  61.4500         1
  61.5000         0
  61.5500         2
  61.6000         1
  61.6500         3
  61.7000         0
  61.7500         2
  61.8000         2
  61.8500         0
  61.9000         1
  61.9500         0
  62.0000         0
  62.0500         0
  62.1000         3
  62.1500         4
  62.2000         1
  62.2500         3
  62.3000         0
  62.3500         0
  62.4000         0
  62.4500         0
  62.5000         0
  62.5500         0
  62.6000         0
  62.6500         2
  62.7000         0
  62.7500         0
  62.8000         2
  62.8500         0
  62.9000         0
  62.9500         1
  63.0000         3
  63.0500         2
  63.1000         3
  63.1500         0
  63.2000         1
  63.2500         3
  63.3000         1
  63.3500         0
  63.4000         0
  63.4500         1
  63.5000         0
  63.5500         0
  63.6000         0
  63.6500         0
  63.7000         2
  63.7500         0
  63.8000         0
  63.8500         0
  63.9000         0
  63.9500         3
  64.0000         0
  64.0500         6
  64.1000         2
  64.1500         0
  64.2000         0
  64.2500         3
  64.3000         0
  64.3500         1
  64.4000         1
  64.4500         1
  64.5000         1
  64.5500         1
  64.6000         2
  64.6500         3
  64.7000         0
  64.7500         0
  64.8000         2
  64.8500         0
  64.9000         1
  64.9500         0
  65.0000         2
  65.0500         1
  65.1000         1
  65.1500         0
  65.2000         0
  65.2500         1
  65.3000         1
  65.3500         2
  65.4000         1
  65.4500         2
  65.5000         0
  65.5500         0
  65.6000         1
  65.6500         0
  65.7000         2
  65.7500         1
  65.8000         1
  65.8500         1
  65.9000         1
  65.9500         0
  66.0000         1
  66.0500         0
  66.1000         1
  66.1500         0
  66.2000         1
  66.2500         2
  66.3000         2
  66.3500         3
  66.4000         0
  66.4500         0
  66.5000         1
  66.5500         1
  66.6000         0
  66.6500         0
  66.7000         1
  66.7500         0
  66.8000         1
  66.8500         1
  66.9000         2
  66.9500         0
  67.0000         2
  67.0500         1
  67.1000         2
  67.1500         4
  67.2000         0
  67.2500         3
  67.3000         0
  67.3500         0
  67.4000         2
  67.4500         2
  67.5000         1
  67.5500         2
  67.6000         2
  67.6500         3
  67.7000         6
  67.7500         0
  67.8000         1
  67.8500         0
  67.9000         1
  67.9500         1
  68.0000         2
  68.0500         2
  68.1000         1
  68.1500         4
  68.2000         2
  68.2500         1
  68.3000         2
  68.3500         5
  68.4000         3
  68.4500         0
  68.5000         3
  68.5500         1
  68.6000         6
  68.6500         0
  68.7000         1
  68.7500         1
  68.8000         3
  68.8500         3
  68.9000         2
  68.9500         1
  69.0000         2
  69.0500         4
  69.1000         4
  69.1500         1
  69.2000         6
  69.2500        11
  69.3000        12
  69.3500        22
  69.4000        20
  69.4500        36
  69.5000        83
  69.5500       124
  69.6000       183
  69.6500       187
  69.7000       157
  69.7500       167
  69.8000       144
  69.8500        97
  69.9000        66
  69.9500        38
  70.0000        38
  70.0500        18
  70.1000         9
  70.1500        11
  70.2000         5
  70.2500         4
  70.3000         3
  70.3500         2
  70.4000         1
  70.4500         6
  70.5000         1
  70.5500         3
  70.6000         4
  70.6500         1
  70.7000         1
  70.7500         2
  70.8000         2
  70.8500         2
  70.9000         0
  70.9500         2
  71.0000         2
  71.0500         1
  71.1000         1
  71.1500         2
  71.2000         3
  71.2500         0
  71.3000         1
  71.3500         1
  71.4000         2
  71.4500         1
  71.5000         0
  71.5500         7
  71.6000         0
  71.6500         2
  71.7000         5
  71.7500         1
  71.8000         0
  71.8500         0
  71.9000         2
  71.9500         1
  72.0000         1
  72.0500         1
  72.1000         3
  72.1500         1
  72.2000         0
  72.2500         1
  72.3000         4
  72.3500         1
  72.4000         3
  72.4500         4
  72.5000         2
  72.5500         1
  72.6000         1
  72.6500         2
  72.7000         2
  72.7500         2
  72.8000         0
  72.8500         1
  72.9000         1
  72.9500         1
  73.0000         2
  73.0500         1
  73.1000         2
  73.1500         1
  73.2000         1
  73.2500         3
  73.3000         3
  73.3500         2
  73.4000         1
  73.4500         0
  73.5000         0
  73.5500         0
  73.6000         0
  73.6500         1
  73.7000         0
  73.7500         0
  73.8000         3
  73.8500         1
  73.9000         3
  73.9500         0
  74.0000         1
  74.0500         0
  74.1000         0
  74.1500         0
  74.2000         1
  74.2500         0
  74.3000         1
  74.3500         2
  74.4000         0
  74.4500         1
  74.5000         0
  74.5500         0
  74.6000         1
  74.6500         0
  74.7000         1
  74.7500         0
  74.8000         2
  74.8500         2
  74.9000         4
  74.9500         1
  75.0000         0
  75.0500         0
  75.1000         3
  75.1500         1
  75.2000         1
  75.2500         0
  75.3000         3
  75.3500         1
  75.4000         0
  75.4500         1
  75.5000         0
  75.5500         2
  75.6000         2
  75.6500         1
  75.7000         0
  75.7500         2
  75.8000         0
  75.8500         3
  75.9000         0
  75.9500         3
  76.0000         2
  76.0500         0
  76.1000         0
  76.1500         1
  76.2000         1
  76.2500         1
  76.3000         2
  76.3500         2
  76.4000         0
  76.4500         2
  76.5000         2
  76.5500         0
  76.6000         2
  76.6500         2
  76.7000         0
  76.7500         0
  76.8000         0
  76.8500         3
  76.9000         2
  76.9500         2
  77.0000         0
  77.0500         0
  77.1000         0
  77.1500         1
  77.2000         0
  77.2500         1
  77.3000         2
  77.3500         0
  77.4000         1
  77.4500         1
  77.5000         0
  77.5500         1
  77.6000         0
  77.6500         0
  77.7000         0
  77.7500         1
  77.8000         0
  77.8500         0
  77.9000         1
  77.9500         1
  78.0000         2
  78.0500         2
  78.1000         2
  78.1500         1
  78.2000         0
  78.2500         2
  78.3000         0
  78.3500         1
  78.4000         0
  78.4500         1
  78.5000         1
  78.5500         1
  78.6000         0
  78.6500         0
  78.7000         1
  78.7500         2
  78.8000         1
  78.8500         1
  78.9000         2
  78.9500         3
  79.0000         0
  79.0500         1
  79.1000         2
  79.1500         3
  79.2000         1
  79.2500         1
  79.3000         1
  79.3500         0
  79.4000         2
  79.4500         0
  79.5000         3
  79.5500         2
  79.6000         2
  79.6500         0
  79.7000         0
  79.7500         0
  79.8000         1
  79.8500         1
  79.9000         3
  79.9500         1
  80.0000         1
  80.0500         1
  80.1000         2
  80.1500         1
  80.2000         2
  80.2500         4
  80.3000         2
  80.3500         1
  80.4000         0
  80.4500         1
  80.5000         1
  80.5500         2
  80.6000         2
  80.6500         1
  80.7000         2
  80.7500         1
  80.8000         2
  80.8500         0
  80.9000         3
  80.9500         1
  81.0000         1
  81.0500         2
  81.1000         0
  81.1500         1
  81.2000         2
  81.2500         0
  81.3000         1
  81.3500         4
  81.4000         1
  81.4500         2
  81.5000         0
  81.5500         1
  81.6000         0
  81.6500         2
  81.7000         0
  81.7500         1
  81.8000         0
  81.8500         0
  81.9000         1
  81.9500         2
  82.0000         5
  82.0500         3
  82.1000         3
  82.1500         3
  82.2000         3
  82.2500         5
  82.3000        18
  82.3500        16
  82.4000        26
  82.4500        37
  82.5000        65
  82.5500        55
  82.6000        50
  82.6500        42
  82.7000        43
  82.7500        38
  82.8000        21
  82.8500        20
  82.9000        13
  82.9500         7
  83.0000         7
  83.0500         3
  83.1000         4
  83.1500         2
  83.2000         6
  83.2500         1
  83.3000         1
  83.3500         3
  83.4000         1
  83.4500         4
  83.5000         2
  83.5500         1
  83.6000         1
  83.6500         1
  83.7000         1
  83.7500         0
  83.8000         1
  83.8500         1
  83.9000         3
  83.9500         0
  84.0000         1
  84.0500         2
  84.1000         2
  84.1500         0
  84.2000         2
  84.2500         0
  84.3000         1
  84.3500         1
  84.4000         0
  84.4500         1
  84.5000         1
  84.5500         0
  84.6000         3
  84.6500         0
  84.7000         2
  84.7500         1
  84.8000         1
  84.8500         0
  84.9000         2
  84.9500         2
  85.0000         1
  85.0500         1
  85.1000         1
  85.1500         0
  85.2000         2
  85.2500         0
  85.3000         1
  85.3500         3
  85.4000         0
  85.4500         0
  85.5000         0
  85.5500         0
  85.6000         0
  85.6500         1
  85.7000         1
  85.7500         1
  85.8000         0
  85.8500         2
  85.9000         0
  85.9500         0
  86.0000         1
  86.0500         2
  86.1000         3
  86.1500         0
  86.2000         2
  86.2500         1
  86.3000         1
  86.3500         2
  86.4000         0
  86.4500         1
  86.5000         1
  86.5500         0
  86.6000         0
  86.6500         1
  86.7000         0
  86.7500         0
  86.8000         0
  86.8500         1
  86.9000         2
  86.9500         1
  87.0000         1
  87.0500         0
  87.1000         1
  87.1500         0
  87.2000         0
  87.2500         0
  87.3000         2
  87.3500         0
  87.4000         1
  87.4500         1
  87.5000         1
  87.5500         1
  87.6000         1
  87.6500         0
  87.7000         0
  87.7500         2
  87.8000         1
  87.8500         3
  87.9000         3
  87.9500         1
  88.0000         1
  88.0500         1
  88.1000         1
  88.1500         3
  88.2000         3
  88.2500         0
  88.3000         1
  88.3500         1
  88.4000         0
  88.4500         0
  88.5000         0
  88.5500         2
  88.6000         3
  88.6500         2
  88.7000         1
  88.7500         1
  88.8000         0
  88.8500         1
  88.9000         2
  88.9500         0
  89.0000         0
  89.0500         2
  89.1000         3
  89.1500         0
  89.2000         0
  89.2500         2
  89.3000         1
  89.3500         3
  89.4000         0
  89.4500         0
  89.5000         2
  89.5500         1
  89.6000         1
  89.6500         2
  89.7000         0
  89.7500         1
  89.8000         0
  89.8500         1
  89.9000         0
  89.9500         5
  90.0000         2
  90.0500         2
  90.1000         0
  90.1500         3
  90.2000         0
  90.2500         2
  90.3000         1
  90.3500         0
  90.4000         0
  90.4500         1
  90.5000         1
  90.5500         1
  90.6000         0
  90.6500         2
  90.7000         3
  90.7500         1
  90.8000         1
  90.8500         2
  90.9000         3
  90.9500         1
  91.0000         2
  91.0500         0
  91.1000         1
  91.1500         1
  91.2000         2
  91.2500         1
  91.3000         0
  91.3500         2
  91.4000         1
  91.4500         0
  91.5000         0
  91.5500         0
  91.6000         0
  91.6500         4
  91.7000         0
  91.7500         2
  91.8000         0
  91.8500         1
  91.9000         4
  91.9500         3
  92.0000         1
  92.0500         4
  92.1000         1
  92.1500         1
  92.2000         1
  92.2500         1
  92.3000         0
  92.3500         0
  92.4000         0
  92.4500         2
  92.5000         3
  92.5500         2
  92.6000         1
  92.6500         4
  92.7000         3
  92.7500         1
  92.8000         0
  92.8500         3
  92.9000         1
  92.9500         5
  93.0000         4
  93.0500         1
  93.1000         2
  93.1500         0
  93.2000         1
  93.2500         2
  93.3000         3
  93.3500         0
  93.4000         2
  93.4500         0
  93.5000         3
  93.5500         5
  93.6000         2
  93.6500         1
  93.7000         3
  93.7500         5
  93.8000         2
  93.8500         4
  93.9000         1
  93.9500         1
  94.0000         4
  94.0500         0
  94.1000         2
  94.1500         2
  94.2000         3
  94.2500         0
  94.3000         6
  94.3500         3
  94.4000         5
  94.4500         5
  94.5000         4
  94.5500         6
  94.6000         4
  94.6500         5
  94.7000         8
  94.7500        13
  94.8000        11
  94.8500        20
  94.9000        50
  94.9500        66
  95.0000        82
  95.0500        77
  95.1000        81
  95.1500        51
  95.2000        46
  95.2500        53
  95.3000        27
  95.3500        57
  95.4000        45
  95.4500        28
  95.5000        19
  95.5500        11
  95.6000         6
  95.6500         6
  95.7000         3
  95.7500         7
  95.8000         5
  95.8500         3
  95.9000         2
  95.9500         0
  96.0000         2
  96.0500         3
  96.1000         2
  96.1500         1
  96.2000         3
  96.2500         0
  96.3000         4
  96.3500         3
  96.4000         3
  96.4500         4
  96.5000         1
  96.5500         3
  96.6000         2
  96.6500         0
  96.7000         2
  96.7500         4
  96.8000         1
  96.8500         3
  96.9000         0
  96.9500         3
  97.0000         1
  97.0500         2
  97.1000         2
  97.1500         0
  97.2000         2
  97.2500         3
  97.3000         1
  97.3500         3
  97.4000         1
  97.4500         2
  97.5000         1
  97.5500         2
  97.6000         1
  97.6500         1
  97.7000         4
  97.7500         0
  97.8000         0
  97.8500         0
  97.9000         1
  97.9500         2
  98.0000         1
  98.0500         0
  98.1000         1
  98.1500         1
  98.2000         0
  98.2500         3
  98.3000         2
  98.3500         1
  98.4000         0
  98.4500         2
  98.5000         1
  98.5500         0
  98.6000         1
  98.6500         2
  98.7000         0
  98.7500         1
  98.8000         0
  98.8500         1
  98.9000         1
  98.9500         0
  99.0000         4
  99.0500         0
  99.1000         0
  99.1500         1
  99.2000         1
  99.2500         0
  99.3000         1
  99.3500         2
  99.4000         3
  99.4500         1
  99.5000         2
  99.5500         2
  99.6000         0
  99.6500         1
  99.7000         1
  99.7500         3
  99.8000         1
  99.8500         2
  99.9000         2
  99.9500         1
 100.0000         1
 100.0500         2
 100.1000         1
 100.1500         1
 100.2000         2
 100.2500         0
 100.3000         1
 100.3500         1
 100.4000         1
 100.4500         0
 100.5000         2
 100.5500         3
 100.6000         2
 100.6500         1
 100.7000         2
 100.7500         0
 100.8000         1
 100.8500         2
 100.9000         1
 100.9500         0
 101.0000         1
 101.0500         1
 101.1000         2
 101.1500         0
 101.2000         0
 101.2500         2
 101.3000         3
 101.3500         0
 101.4000         2
 101.4500         1
 101.5000         1
 101.5500         0
 101.6000         2
 101.6500         1
 101.7000         2
 101.7500         1
 101.8000         3
 101.8500         0
 101.9000         1
 101.9500         1
 102.0000         1
 102.0500         0
 102.1000         1
 102.1500         0
 102.2000         0
 102.2500         2
 102.3000         1
 102.3500         2
 102.4000         0
 102.4500         1
 102.5000         3
 102.5500         1
 102.6000         1
 102.6500         2
 102.7000         0
 102.7500         0
 102.8000         0
 102.8500         1
 102.9000         1
 102.9500         2
 103.0000         1
 103.0500         1
 103.1000         1
 103.1500         2
 103.2000         2
 103.2500         1
 103.3000         3
 103.3500         0
 103.4000         4
 103.4500         2
 103.5000         1
 103.5500         4
 103.6000         1
 103.6500         3
 103.7000         4
 103.7500         3
 103.8000         2
 103.8500         1
 103.9000         1
 103.9500         1
 104.0000         4
 104.0500         1
 104.1000         2
 104.1500         3
 104.2000         4
 104.2500         0
 104.3000         1
 104.3500         3
 104.4000         0
 104.4500         2
 104.5000         1
 104.5500         2
 104.6000         0
 104.6500         2
 104.7000         3
 104.7500         1
 104.8000         3
 104.8500         4
 104.9000         0
 104.9500         4
 105.0000         1
 105.0500         4
 105.1000         3
 105.1500         0
 105.2000         1
 105.2500         0
 105.3000         0
 105.3500         3
 105.4000         2
 105.4500         0
 105.5000         1
 105.5500         1
 105.6000         2
 105.6500         0
 105.7000         0
 105.7500         4
 105.8000         1
 105.8500         1
 105.9000         2
 105.9500         2
 106.0000         2
 106.0500         1
 106.1000         0
 106.1500         1
 106.2000         4
 106.2500         2
 106.3000         1
 106.3500         2
 106.4000         1
 106.4500         1
 106.5000         1
 106.5500         1
 106.6000         3
 106.6500         1
 106.7000         1
 106.7500         3
 106.8000         0
 106.8500         3
 106.9000         1
 106.9500         1
 107.0000         2
 107.0500         3
 107.1000         2
 107.1500         2
 107.2000         3
 107.2500         1
 107.3000         3
 107.3500         3
 107.4000         2
 107.4500         3
 107.5000         2
 107.5500         5
 107.6000         8
 107.6500        13
 107.7000        19
 107.7500        22
 107.8000        22
 107.8500        22
 107.9000        14
 107.9500         7
 108.0000        14
 108.0500         8
 108.1000        12
 108.1500        18
 108.2000        11
 108.2500        24
 108.3000         7
 108.3500         7
 108.4000         3
 108.4500         3
 108.5000         5
 108.5500         1
 108.6000         2
 108.6500         2
 108.7000         3
 108.7500         2
 108.8000         1
 108.8500         4
 108.9000         2
 108.9500         3
 109.0000         2
 109.0500         3
 109.1000         0
 109.1500         0
 109.2000         2
 109.2500         1
 109.3000         0
 109.3500         1
 109.4000         1
 109.4500         4
 109.5000         2
 109.5500         2
 109.6000         1
 109.6500         2
 109.7000         0
 109.7500         1
 109.8000         3
 109.8500         1
 109.9000         1
 109.9500         3
 110.0000         1
