  20.0000        12
  20.0500        13
  20.1000         8
  20.1500        12
  20.2000        12
  20.2500        13
  20.3000        16
  20.3500        11
  20.4000         7
  20.4500        16
  20.5000         8
  20.5500         9
  20.6000         6
  20.6500        11
  20.7000         9
  20.7500        12
  20.8000        16
  20.8500         9
  20.9000        15
  20.9500        17
  21.0000        13
  21.0500        12
  21.1000        10
  21.1500         5
  21.2000        14
  21.2500        15
  21.3000        10
  21.3500        10
  21.4000        13
  21.4500        10
  21.5000         7
  21.5500         9
  21.6000         3
  21.6500        11
  21.7000        10
  21.7500        10
  21.8000        16
  21.8500        14
  21.9000        13
  21.9500        11
  22.0000         9
  22.0500        14
  22.1000        12
  22.1500        10
  22.2000         5
  22.2500         9
  22.3000        12
  22.3500        13
  22.4000         6
  22.4500        10
  22.5000        13
  22.5500        13
  22.6000         4
  22.6500         6
  22.7000         9
  22.7500         9
  22.8000        17
  22.8500        13
  22.9000        15
  22.9500         7
  23.0000        10
  23.0500         7
  23.1000        13
  23.1500         9
  23.2000         8
  23.2500         5
  23.3000        10
  23.3500        11
  23.4000        14
  23.4500        11
  23.5000        12
  23.5500        13
  23.6000         9
  23.6500         7
  23.7000         9
  23.7500         9
  23.8000        12
  23.8500         4
  23.9000        10
  23.9500        13
  24.0000        15
  24.0500        10
  24.1000         7
  24.1500        10
  24.2000        11
  24.2500         8
  24.3000         7
  24.3500        11
  24.4000         9
  24.4500        10
  24.5000        12
  24.5500         7
  24.6000         8
  24.6500         4
  24.7000         7
  24.7500         3
  24.8000         9
  24.8500         9
  24.9000         8
  24.9500        10
  25.0000         8
  25.0500        14
  25.1000         7
  25.1500        12
  25.2000        14
  25.2500         5
  25.3000         7
  25.3500        19
  25.4000         8
  25.4500        12
  25.5000        16
  25.5500        14
  25.6000        11
  25.6500         9
  25.7000         8
  25.7500         6
  25.8000        16
  25.8500        11
  25.9000        14
  25.9500        13
  26.0000        11
  26.0500        12
  26.1000         7
  26.1500        16
  26.2000         5
  26.2500        16
  26.3000        14
  26.3500        12
  26.4000        11
  26.4500        17
  26.5000         9
  26.5500        15
  26.6000        11
  26.6500        15
  26.7000         7
  26.7500        10
  26.8000         8
  26.8500         7
  26.9000        15
  26.9500         7
  27.0000         8
  27.0500        15
  27.1000        11
  27.1500         6
  27.2000         9
  27.2500         8
  27.3000        16
  27.3500         5
  27.4000         5
  27.4500        13
  27.5000        13
  27.5500        10
  27.6000         4
  27.6500        10
  27.7000        10
  27.7500         8
  27.8000        14
  27.8500        10
  27.9000        14
  27.9500        10
  28.0000        15
  28.0500         6
  28.1000         9
  28.1500         7
  28.2000         9
  28.2500        13
  28.3000         9
  28.3500        13
  28.4000         9
  28.4500        15
  28.5000         7
  28.5500        10
  28.6000        12
  28.6500        13
  28.7000        12
  28.7500        10
  28.8000        10
  28.8500        10
  28.9000        14
  28.9500        11
  29.0000        16
  29.0500        10
  29.1000         9
  29.1500        12
  29.2000         8
  29.2500         9
  29.3000        10
  29.3500        11
  29.4000         7
  29.4500        11
  29.5000        13
  29.5500        10
  29.6000         7
  29.6500        12
  29.7000         9
  29.7500         9
  29.8000        12
  29.8500         5
  29.9000         9
  29.9500         9
  30.0000        11
  30.0500         7
  30.1000         7
  30.1500        18
  30.2000         4
  30.2500        15
  30.3000        13
  30.3500         3
  30.4000         9
  30.4500        10
  30.5000        10
  30.5500         8
  30.6000        13
  30.6500         9
  30.7000         9
  30.7500        10
  30.8000         6
  30.8500        12
  30.9000         5
  30.9500        13
  31.0000         9
  31.0500        13
  31.1000         5
  31.1500        11
  31.2000        10
  31.2500         7
  31.3000        11
  31.3500         6
  31.4000         9
  31.4500        12
  31.5000         8
  31.5500        13
  31.6000         8
  31.6500        11
  31.7000        11
  31.7500        13
  31.8000        10
  31.8500         9
  31.9000        12
  31.9500        13
  32.0000         9
  32.0500        10
  32.1000        12
  32.1500        11
  32.2000         9
  32.2500         6
  32.3000         6
  32.3500        10
  32.4000         9
  32.4500        13
  32.5000        17
  32.5500        11
  32.6000         7
  32.6500        12
  32.7000        10
  32.7500         8
  32.8000        11
  32.8500        17
  32.9000        15
  32.9500        13
  33.0000        13
  33.0500        16
  33.1000        11
  33.1500        11
  33.2000        14
  33.2500         7
  33.3000        16
  33.3500        12
  33.4000        15
  33.4500        12
  33.5000        11
  33.5500         6
  33.6000        12
  33.6500        12
  33.7000        13
  33.7500        12
  33.8000        11
  33.8500         7
  33.9000         9
  33.9500        10
  34.0000        16
  34.0500        16
  34.1000        10
  34.1500         7
  34.2000         9
  34.2500        17
  34.3000        15
  34.3500         9
  34.4000         8
  34.4500        13
  34.5000        17
  34.5500        11
  34.6000        14
  34.6500        14
  34.7000        11
  34.7500         7
  34.8000        12
  34.8500        11
  34.9000         9
  34.9500        16
  35.0000        11
  35.0500        15
  35.1000        16
  35.1500         9
  35.2000        12
  35.2500        11
  35.3000         5
  35.3500        11
  35.4000         9
  35.4500        10
  35.5000        15
  35.5500        13
  35.6000        17
  35.6500         9
  35.7000        13
  35.7500        15
  35.8000        11
  35.8500         9
  35.9000         5
  35.9500        12
  36.0000        12
  36.0500        11
  36.1000        14
  36.1500         7
  36.2000        11
  36.2500         7
  36.3000        16
  36.3500         9
  36.4000        13
  36.4500         5
  36.5000         9
  36.5500        12
  36.6000        15
  36.6500        14
  36.7000        10
  36.7500        11
  36.8000        13
  36.8500        11
  36.9000        12
  36.9500         6
  37.0000         8
  37.0500        11
  37.1000         6
  37.1500        15
  37.2000         9
  37.2500        11
  37.3000        15
  37.3500        12
  37.4000        15
  37.4500         9
  37.5000         7
  37.5500        12
  37.6000         8
  37.6500        19
  37.7000         9
  37.7500         9
  37.8000        12
  37.8500        11
  37.9000         6
  37.9500        10
  38.0000        13
  38.0500         6
  38.1000        12
  38.1500        10
  38.2000        12
  38.2500        12
  38.3000        11
  38.3500        14
  38.4000         8
  38.4500        10
  38.5000         9
  38.5500        14
  38.6000        13
  38.6500        11
  38.7000        12
  38.7500        12
  38.8000        15
  38.8500        10
  38.9000        16
  38.9500        11
  39.0000        14
  39.0500        10
  39.1000        14
  39.1500        14
  39.2000        11
  39.2500        16
  39.3000         8
  39.3500        11
  39.4000         6
  39.4500        16
  39.5000        16
  39.5500        11
  39.6000        14
  39.6500         9
  39.7000        10
  39.7500        11
  39.8000         7
  39.8500         6
  39.9000        13
  39.9500        14
  40.0000        14
  40.0500         8
  40.1000        10
  40.1500        17
  40.2000         8
  40.2500        10
  40.3000         7
  40.3500        16
  40.4000        17
  40.4500        11
  40.5000        11
  40.5500        17
  40.6000        10
  40.6500        18
  40.7000        11
  40.7500        17
  40.8000        11
  40.8500        14
  40.9000        16
  40.9500        12
  41.0000        15
  41.0500        13
  41.1000        16
  41.1500        18
  41.2000        12
  41.2500        18
  41.3000        12
  41.3500        17
  41.4000        10
  41.4500        21
  41.5000         6
  41.5500         8
  41.6000        12
  41.6500         6
  41.7000        17
  41.7500        19
  41.8000        18
  41.8500        12
  41.9000        13
  41.9500        20
  42.0000         9
  42.0500        14
  42.1000        10
  42.1500         8
  42.2000        19
  42.2500        12
  42.3000        12
  42.3500        19
  42.4000        13
  42.4500         7
  42.5000         7
  42.5500        19
  42.6000        18
  42.6500        10
  42.7000        19
  42.7500        20
  42.8000        18
  42.8500        19
  42.9000        10
  42.9500        21
  43.0000        20
  43.0500        13
  43.1000        17
  43.1500        23
  43.2000        17
  43.2500        21
  43.3000        24
  43.3500        28
  43.4000        19
  43.4500        26
  43.5000        29
  43.5500        26
  43.6000        26
  43.6500        26
  43.7000        22
  43.7500        36
  43.8000        27
  43.8500        27
  43.9000        35
  43.9500        40
  44.0000        45
  44.0500        72
  44.1000        94
  44.1500       109
  44.2000       152
  44.2500       243
  44.3000       412
  44.3500       699
  44.4000      1025
  44.4500      1298
  44.5000      1382
  44.5500      1328
  44.6000      1138
  44.6500       827
  44.7000       513
  44.7500       295
  44.8000       194
  44.8500        90
  44.9000        92
  44.9500        65
  45.0000        57
  45.0500        40
  45.1000        37
  45.1500        19
  45.2000        33
  45.2500        25
  45.3000        25
  45.3500        25
  45.4000        19
  45.4500        28
  45.5000        17
  45.5500        12
  45.6000        17
  45.6500        17
  45.7000        18
  45.7500        20
  45.8000        15
  45.8500         6
  45.9000        17
  45.9500        12
  46.0000        13
  46.0500        12
  46.1000        14
  46.1500        13
  46.2000        23
  46.2500        15
  46.3000        16
  46.3500        19
  46.4000        14
  46.4500        12
  46.5000        11
  46.5500        12
  46.6000        13
  46.6500        15
  46.7000        15
  46.7500        11
  46.8000        11
  46.8500        11
  46.9000        19
  46.9500        19
  47.0000        14
  47.0500        15
  47.1000        24
  47.1500        16
  47.2000        14
  47.2500         7
  47.3000        11
  47.3500         8
  47.4000        12
  47.4500        10
  47.5000         7
  47.5500        16
  47.6000         9
  47.6500        17
  47.7000        14
  47.7500        20
  47.8000        14
  47.8500         9
  47.9000        16
  47.9500        19
  48.0000         8
  48.0500        12
  48.1000        10
  48.1500        12
  48.2000         7
  48.2500        15
  48.3000        11
  48.3500         6
  48.4000        20
  48.4500        17
  48.5000        10
  48.5500        21
  48.6000         8
  48.6500        13
  48.7000        16
  48.7500         9
  48.8000        14
  48.8500        17
  48.9000        11
  48.9500         7
  49.0000        14
  49.0500        14
  49.1000        13
  49.1500        14
  49.2000         9
  49.2500         8
  49.3000         9
  49.3500        15
  49.4000        17
  49.4500         9
  49.5000         8
  49.5500        13
  49.6000        10
  49.6500        13
  49.7000        19
  49.7500        16
  49.8000        15
  49.8500        11
  49.9000        11
  49.9500        15
  50.0000         8
  50.0500        14
  50.1000        11
  50.1500        14
  50.2000        18
  50.2500        13
  50.3000        15
  50.3500        23
  50.4000        12
  50.4500        19
  50.5000        15
  50.5500        13
  50.6000        19
  50.6500        21
  50.7000        24
  50.7500        17
  50.8000        17
  50.8500        18
  50.9000        23
  50.9500        12
  51.0000        21
  51.0500        27
  51.1000        25
  51.1500        31
  51.2000        28
  51.2500        31
  51.3000        31
  51.3500        40
  51.4000        53
  51.4500        53
  51.5000        82
  51.5500       125
  51.6000       177
  51.6500       197
  51.7000       274
  51.7500       363
  51.8000       458
  51.8500       482
  51.9000       492
  51.9500       429
  52.0000       358
  52.0500       258
  52.1000       204
  52.1500       129
  52.2000        74
  52.2500        75
  52.3000        55
  52.3500        40
  52.4000        40
  52.4500        32
  52.5000        36
  52.5500        16
  52.6000        20
  52.6500        20
  52.7000        15
  52.7500        17
  52.8000        23
  52.8500        18
  52.9000        12
  52.9500        19
  53.0000        16
  53.0500        15
  53.1000        17
  53.1500         8
  53.2000         8
  53.2500        16
  53.3000        21
  53.3500        21
  53.4000        19
  53.4500         6
  53.5000         9
  53.5500        15
  53.6000        15
  53.6500        19
  53.7000        13
  53.7500        13
  53.8000        18
  53.8500         7
  53.9000        14
  53.9500        11
  54.0000        12
  54.0500        18
  54.1000        11
  54.1500         9
  54.2000         8
  54.2500         9
  54.3000        14
  54.3500        13
  54.4000        15
  54.4500        15
  54.5000        17
  54.5500        17
  54.6000        10
  54.6500        12
  54.7000        10
  54.7500        10
  54.8000        15
  54.8500        11
  54.9000        16
  54.9500        16
  55.0000        15
  55.0500        12
  55.1000        12
  55.1500        10
  55.2000        21
  55.2500        11
  55.3000        11
  55.3500        10
  55.4000        12
  55.4500         9
  55.5000         7
  55.5500         6
  55.6000        12
  55.6500        11
  55.7000        14
  55.7500         8
  55.8000        13
  55.8500        11
  55.9000        14
  55.9500        17
  56.0000        12
  56.0500        17
  56.1000        11
  56.1500        17
  56.2000         8
  56.2500        17
  56.3000        17
  56.3500        13
  56.4000        12
  56.4500         9
  56.5000        16
  56.5500        12
  56.6000        15
  56.6500         6
  56.7000        15
  56.7500         8
  56.8000        19
  56.8500        12
  56.9000        14
  56.9500        10
  57.0000        12
  57.0500        14
  57.1000        14
  57.1500        11
  57.2000        13
  57.2500        12
  57.3000        11
  57.3500         8
  57.4000        11
  57.4500        10
  57.5000        19
  57.5500         9
  57.6000        14
  57.6500        11
  57.7000        15
  57.7500         7
  57.8000        15
  57.8500         7
  57.9000        14
  57.9500         8
  58.0000         9
  58.0500        10
  58.1000        11
  58.1500        14
  58.2000        14
  58.2500        10
  58.3000        11
  58.3500        15
  58.4000         8
  58.4500        17
  58.5000         7
  58.5500        19
  58.6000        11
  58.6500        16
  58.7000        11
  58.7500        14
  58.8000        11
  58.8500         8
  58.9000        13
  58.9500         9
  59.0000         4
  59.0500         9
  59.1000        17
  59.1500        12
  59.2000        12
  59.2500        11
  59.3000        12
  59.3500         9
  59.4000         5
  59.4500        10
  59.5000         7
  59.5500        10
  59.6000        10
  59.6500        15
  59.7000         6
  59.7500        11
  59.8000         9
  59.8500        14
  59.9000        10
  59.9500         7
  60.0000        15
  60.0500        12
  60.1000        11
  60.1500        11
  60.2000        11
  60.2500         8
  60.3000        20
  60.3500        12
  60.4000        11
  60.4500         8
  60.5000        12
  60.5500        11
  60.6000        13
  60.6500        12
  60.7000        11
  60.7500        10
  60.8000        21
  60.8500        12
  60.9000         8
  60.9500         9
  61.0000        14
  61.0500        11
  61.1000        10
  61.1500         7
  61.2000        10
  61.2500        14
  61.3000         9
  61.3500        20
  61.4000        16
  61.4500        17
  61.5000        15
  61.5500        12
  61.6000         7
  61.6500        13
  61.7000        11
  61.7500        10
  61.8000         9
  61.8500         5
  61.9000        13
  61.9500        11
  62.0000        13
  62.0500        11
  62.1000         4
  62.1500        18
  62.2000        13
  62.2500         8
  62.3000        10
  62.3500         7
  62.4000         8
  62.4500        10
  62.5000        13
  62.5500        13
  62.6000        10
  62.6500        18
  62.7000         5
  62.7500        13
  62.8000         9
  62.8500         7
  62.9000        14
  62.9500        11
  63.0000         4
  63.0500        12
  63.1000        12
  63.1500         8
  63.2000        10
  63.2500        12
  63.3000         9
  63.3500         7
  63.4000        13
  63.4500        11
  63.5000        12
  63.5500        13
  63.6000         6
  63.6500        13
  63.7000        13
  63.7500        10
  63.8000         7
  63.8500        12
  63.9000        16
  63.9500        17
  64.0000         6
  64.0500        10
  64.1000         5
  64.1500        12
  64.2000         6
  64.2500         8
  64.3000        10
  64.3500        15
  64.4000         8
  64.4500         9
  64.5000        18
  64.5500         8
  64.6000         9
  64.6500        12
  64.7000        13
  64.7500         9
  64.8000         2
  64.8500        13
  64.9000        13
  64.9500         5
  65.0000        10
  65.0500         9
  65.1000         7
  65.1500         9
  65.2000         8
  65.2500        10
  65.3000         9
  65.3500         7
  65.4000        20
  65.4500         6
  65.5000        11
  65.5500        13
  65.6000         6
  65.6500        11
  65.7000        14
  65.7500        10
  65.8000        11
  65.8500         8
  65.9000        11
  65.9500         6
  66.0000        11
  66.0500         6
  66.1000        11
  66.1500        13
  66.2000        12
  66.2500         9
  66.3000        11
  66.3500        10
  66.4000        14
  66.4500        13
  66.5000        10
  66.5500         8
  66.6000        14
  66.6500        15
  66.7000        24
  66.7500        13
  66.8000         5
  66.8500        10
  66.9000         9
  66.9500        11
  67.0000        10
  67.0500        11
  67.1000         8
  67.1500        11
  67.2000         9
  67.2500         6
  67.3000         7
  67.3500        15
  67.4000         9
  67.4500        11
  67.5000        16
  67.5500        14
  67.6000        11
  67.6500         5
  67.7000        13
  67.7500        14
  67.8000         8
  67.8500        14
  67.9000         8
  67.9500        10
  68.0000         6
  68.0500        13
  68.1000        20
  68.1500        15
  68.2000        21
  68.2500        16
  68.3000        14
  68.3500         9
  68.4000         8
  68.4500        14
  68.5000         9
  68.5500        11
  68.6000        14
  68.6500         9
  68.7000        10
  68.7500        10
  68.8000         8
  68.8500         7
  68.9000        14
  68.9500         7
  69.0000        12
  69.0500         7
  69.1000         7
  69.1500        15
  69.2000        21
  69.2500        14
  69.3000        15
  69.3500         8
  69.4000        11
  69.4500        11
  69.5000        12
  69.5500        10
  69.6000        14
  69.6500        14
  69.7000         8
  69.7500        10
  69.8000         7
  69.8500         7
  69.9000         6
  69.9500        10
  70.0000        11
  70.0500         9
  70.1000        21
  70.1500        12
  70.2000         7
  70.2500         3
  70.3000         8
  70.3500        10
  70.4000        16
  70.4500        10
  70.5000         9
  70.5500         9
  70.6000        16
  70.6500        11
  70.7000        17
  70.7500        12
  70.8000        12
  70.8500        15
  70.9000         8
  70.9500        11
  71.0000         9
  71.0500        17
  71.1000        10
  71.1500        14
  71.2000         8
  71.2500        11
  71.3000        19
  71.3500        13
  71.4000        12
  71.4500        11
  71.5000         8
  71.5500         8
  71.6000        14
  71.6500        11
  71.7000        11
  71.7500         6
  71.8000         8
  71.8500        14
  71.9000        12
  71.9500        13
  72.0000        14
  72.0500         8
  72.1000         5
  72.1500         8
  72.2000        14
  72.2500        16
  72.3000         8
  72.3500        12
  72.4000        13
  72.4500         8
  72.5000        11
  72.5500        10
  72.6000        12
  72.6500        11
  72.7000        10
  72.7500        13
  72.8000        15
  72.8500        13
  72.9000        12
  72.9500        14
  73.0000        12
  73.0500        13
  73.1000         9
  73.1500        14
  73.2000        17
  73.2500        11
  73.3000        12
  73.3500        18
  73.4000        17
  73.4500         8
  73.5000         6
  73.5500         6
  73.6000         9
  73.6500        12
  73.7000         6
  73.7500        10
  73.8000        11
  73.8500         7
  73.9000        15
  73.9500         8
  74.0000         6
  74.0500        16
  74.1000         7
  74.1500        12
  74.2000        13
  74.2500        16
  74.3000        12
  74.3500        14
  74.4000        13
  74.4500         8
  74.5000        11
  74.5500         9
  74.6000        15
  74.6500        17
  74.7000        19
  74.7500         7
  74.8000        21
  74.8500         8
  74.9000        13
  74.9500        15
  75.0000        13
  75.0500        22
  75.1000        20
  75.1500        15
  75.2000        13
  75.2500         8
  75.3000        11
  75.3500        12
  75.4000        12
  75.4500        13
  75.5000        12
  75.5500        10
  75.6000        19
  75.6500        21
  75.7000        25
  75.7500        22
  75.8000        18
  75.8500        35
  75.9000        23
  75.9500        39
  76.0000        41
  76.0500        48
  76.1000        59
  76.1500        62
  76.2000       101
  76.2500       146
  76.3000       191
  76.3500       201
  76.4000       214
  76.4500       212
  76.5000       164
  76.5500       183
  76.6000       136
  76.6500       104
  76.7000       100
  76.7500        76
  76.8000        60
  76.8500        47
  76.9000        26
  76.9500        36
  77.0000        25
  77.0500        24
  77.1000        20
  77.1500        18
  77.2000        18
  77.2500        26
  77.3000        16
  77.3500        18
  77.4000        14
  77.4500        13
  77.5000         7
  77.5500        19
  77.6000        13
  77.6500         8
  77.7000        12
  77.7500        17
  77.8000        16
  77.8500        10
  77.9000        15
  77.9500         9
  78.0000        11
  78.0500        10
  78.1000         9
  78.1500        15
  78.2000        13
  78.2500        12
  78.3000        13
  78.3500        12
  78.4000        13
  78.4500        17
  78.5000        10
  78.5500        14
  78.6000        16
  78.6500         9
  78.7000        15
  78.7500         8
  78.8000        10
  78.8500        15
  78.9000        11
  78.9500        16
  79.0000        17
  79.0500        10
  79.1000        11
  79.1500         9
  79.2000         7
  79.2500        18
  79.3000         9
  79.3500        15
  79.4000        14
  79.4500        10
  79.5000        12
  79.5500        10
  79.6000        11
  79.6500        19
  79.7000        11
  79.7500        12
  79.8000        15
  79.8500         5
  79.9000        21
  79.9500        11
  80.0000        13
  80.0500        12
  80.1000        15
  80.1500        15
  80.2000         9
  80.2500        11
  80.3000        11
  80.3500        18
  80.4000        10
  80.4500        16
  80.5000        10
  80.5500        12
  80.6000         5
  80.6500        13
  80.7000         7
  80.7500        12
  80.8000         6
  80.8500        15
  80.9000        11
  80.9500        18
  81.0000         9
  81.0500        15
  81.1000        14
  81.1500        15
  81.2000         4
  81.2500        16
  81.3000         8
  81.3500         8
  81.4000        11
  81.4500        10
  81.5000         5
  81.5500        17
  81.6000         6
  81.6500        11
  81.7000        14
  81.7500        12
  81.8000        13
  81.8500        18
  81.9000        10
  81.9500         9
  82.0000         9
  82.0500         9
  82.1000         9
  82.1500        11
  82.2000        12
  82.2500         8
  82.3000         7
  82.3500        13
  82.4000         9
  82.4500         8
  82.5000         8
  82.5500         9
  82.6000        17
  82.6500        11
  82.7000         7
  82.7500         8
  82.8000        13
  82.8500        18
  82.9000        12
  82.9500        15
  83.0000        11
  83.0500        19
  83.1000        12
  83.1500        11
  83.2000        10
  83.2500        14
  83.3000         8
  83.3500        10
  83.4000         9
  83.4500        15
  83.5000        14
  83.5500        12
  83.6000        12
  83.6500        13
  83.7000        10
  83.7500        20
  83.8000        10
  83.8500         6
  83.9000        20
  83.9500        15
  84.0000        12
  84.0500        11
  84.1000         9
  84.1500         7
  84.2000        13
  84.2500        15
  84.3000        12
  84.3500         9
  84.4000        15
  84.4500        11
  84.5000         8
  84.5500         8
  84.6000        12
  84.6500        14
  84.7000        19
  84.7500        14
  84.8000        18
  84.8500        15
  84.9000        13
  84.9500        13
  85.0000        14
  85.0500         8
  85.1000        12
  85.1500        10
  85.2000        22
  85.2500         6
  85.3000        16
  85.3500        14
  85.4000         5
  85.4500         8
  85.5000         5
  85.5500         6
  85.6000        14
  85.6500        13
  85.7000         9
  85.7500        15
  85.8000         7
  85.8500         7
  85.9000        16
  85.9500        10
  86.0000         8
  86.0500         6
  86.1000        13
  86.1500        15
  86.2000        14
  86.2500        17
  86.3000        13
  86.3500        21
  86.4000        12
  86.4500         8
  86.5000        15
  86.5500         9
  86.6000        14
  86.6500         8
  86.7000        12
  86.7500        17
  86.8000        15
  86.8500        11
  86.9000        10
  86.9500        12
  87.0000        14
  87.0500        16
  87.1000        17
  87.1500        11
  87.2000        13
  87.2500         9
  87.3000        12
  87.3500         7
  87.4000        13
  87.4500        16
  87.5000        16
  87.5500        11
  87.6000        12
  87.6500        13
  87.7000        14
  87.7500        11
  87.8000        11
  87.8500         8
  87.9000        14
  87.9500         9
  88.0000         7
  88.0500        13
  88.1000        12
  88.1500        14
  88.2000        14
  88.2500        14
  88.3000        12
  88.3500         6
  88.4000         8
  88.4500         8
  88.5000         4
  88.5500        12
  88.6000         3
  88.6500        11
  88.7000         9
  88.7500        14
  88.8000        16
  88.8500        17
  88.9000        12
  88.9500        15
  89.0000        14
  89.0500         7
  89.1000        12
  89.1500        10
  89.2000        16
  89.2500        16
  89.3000        17
  89.3500         7
  89.4000        16
  89.4500        19
  89.5000        11
  89.5500        17
  89.6000        14
  89.6500         9
  89.7000        10
  89.7500         9
  89.8000        12
  89.8500         8
  89.9000        14
  89.9500        14
  90.0000        17
  90.0500        13
  90.1000        13
  90.1500        11
  90.2000        17
  90.2500        21
  90.3000        10
  90.3500        15
  90.4000         7
  90.4500        14
  90.5000        13
  90.5500        21
  90.6000         8
  90.6500        16
  90.7000         6
  90.7500        18
  90.8000        13
  90.8500        11
  90.9000        10
  90.9500        18
  91.0000        13
  91.0500        12
  91.1000        21
  91.1500         7
  91.2000        16
  91.2500         9
  91.3000        15
  91.3500        13
  91.4000        11
  91.4500        18
  91.5000        13
  91.5500        14
  91.6000        11
  91.6500        15
  91.7000        19
  91.7500        17
  91.8000        18
  91.8500        14
  91.9000        12
  91.9500        20
  92.0000        17
  92.0500        17
  92.1000        17
  92.1500        21
  92.2000        27
  92.2500        25
  92.3000        23
  92.3500        34
  92.4000        38
  92.4500        37
  92.5000        48
  92.5500        52
  92.6000        65
  92.6500        75
  92.7000        83
  92.7500       116
  92.8000       139
  92.8500       140
  92.9000       153
  92.9500       172
  93.0000       136
  93.0500       148
  93.1000       145
  93.1500       128
  93.2000       127
  93.2500       108
  93.3000        87
  93.3500        75
  93.4000        57
  93.4500        53
  93.5000        43
  93.5500        47
  93.6000        36
  93.6500        26
  93.7000        26
  93.7500        22
  93.8000        27
  93.8500        24
  93.9000        21
  93.9500        25
  94.0000        15
  94.0500        23
  94.1000        18
  94.1500        15
  94.2000        10
  94.2500        21
  94.3000        15
  94.3500        10
  94.4000        21
  94.4500        17
  94.5000         9
  94.5500         9
  94.6000        10
  94.6500        13
  94.7000        14
  94.7500        17
  94.8000        16
  94.8500        13
  94.9000         7
  94.9500        15
  95.0000        12
  95.0500        11
  95.1000        19
  95.1500        12
  95.2000        12
  95.2500        10
  95.3000         9
  95.3500        13
  95.4000        12
  95.4500        11
  95.5000        10
  95.5500        14
  95.6000        17
  95.6500        19
  95.7000        11
  95.7500        11
  95.8000        12
  95.8500        13
  95.9000        11
  95.9500        10
  96.0000        11
  96.0500        14
  96.1000        13
  96.1500        16
  96.2000        24
  96.2500        22
  96.3000         7
  96.3500        12
  96.4000        11
  96.4500        18
  96.5000         7
  96.5500        18
  96.6000         9
  96.6500        11
  96.7000         5
  96.7500         9
  96.8000        12
  96.8500        14
  96.9000        17
  96.9500         8
  97.0000        12
  97.0500         9
  97.1000        15
  97.1500        18
  97.2000         9
  97.2500        18
  97.3000         6
  97.3500         8
  97.4000        13
  97.4500        10
  97.5000        12
  97.5500        17
  97.6000         7
  97.6500        15
  97.7000        15
  97.7500        12
  97.8000        17
  97.8500        18
  97.9000        15
  97.9500        19
  98.0000        15
  98.0500        20
  98.1000        30
  98.1500        20
  98.2000        39
  98.2500        37
  98.3000        46
  98.3500        46
  98.4000        62
  98.4500        52
  98.5000        53
  98.5500        44
  98.6000        49
  98.6500        64
  98.7000        35
  98.7500        41
  98.8000        48
  98.8500        29
  98.9000        32
  98.9500        30
  99.0000        19
  99.0500        20
  99.1000        26
  99.1500        11
  99.2000        13
  99.2500        11
  99.3000        14
  99.3500        15
  99.4000        18
  99.4500         9
  99.5000        16
  99.5500        14
  99.6000        12
  99.6500         5
  99.7000        10
  99.7500        17
  99.8000        11
  99.8500        14
  99.9000        14
  99.9500        17
 100.0000        15
 100.0500        13
 100.1000        17
 100.1500        16
 100.2000         8
 100.2500         8
 100.3000         6
 100.3500        11
 100.4000         9
 100.4500        14
 100.5000        13
 100.5500        10
 100.6000        13
 100.6500        22
 100.7000        13
 100.7500        12
 100.8000        15
 100.8500        12
 100.9000        24
 100.9500        13
 101.0000        11
 101.0500         9
 101.1000        12
 101.1500        12
 101.2000        15
 101.2500        15
 101.3000         9
 101.3500        12
 101.4000        15
 101.4500         6
 101.5000        13
 101.5500        10
 101.6000        16
 101.6500        13
 101.7000         8
 101.7500        13
 101.8000        13
 101.8500         4
 101.9000         8
 101.9500        18
 102.0000        10
 102.0500        12
 102.1000         8
 102.1500         7
 102.2000        13
 102.2500         7
 102.3000        18
 102.3500        15
 102.4000        16
 102.4500        11
 102.5000         9
 102.5500        12
 102.6000        11
 102.6500        13
 102.7000        10
 102.7500         6
 102.8000         5
 102.8500        12
 102.9000        16
 102.9500        11
 103.0000        13
 103.0500        15
 103.1000        11
 103.1500         8
 103.2000        15
 103.2500        15
 103.3000        10
 103.3500        11
 103.4000        11
 103.4500         7
 103.5000        15
 103.5500        14
 103.6000         7
 103.6500        15
 103.7000         8
 103.7500         9
 103.8000        16
 103.8500        13
 103.9000        12
 103.9500         7
 104.0000        12
 104.0500        11
 104.1000        12
 104.1500        17
 104.2000         6
 104.2500         7
 104.3000        10
 104.3500        19
 104.4000        13
 104.4500        14
 104.5000         9
 104.5500         9
 104.6000         9
 104.6500         7
 104.7000        13
 104.7500        10
 104.8000        13
 104.8500        20
 104.9000         9
 104.9500         4
 105.0000        10
 105.0500        10
 105.1000        13
 105.1500        12
 105.2000        11
 105.2500        11
 105.3000        10
 105.3500        11
 105.4000        12
 105.4500        14
 105.5000        12
 105.5500        10
 105.6000        12
 105.6500        12
 105.7000        11
 105.7500        15
 105.8000        13
 105.8500        16
 105.9000        11
 105.9500         7
 106.0000        12
 106.0500        10
 106.1000        14
 106.1500        16
 106.2000        16
 106.2500        12
 106.3000         6
 106.3500        18
 106.4000        15
 106.4500        11
 106.5000         4
 106.5500        10
 106.6000         7
 106.6500         9
 106.7000        12
 106.7500         9
 106.8000         8
 106.8500        12
 106.9000         3
 106.9500        14
 107.0000        15
 107.0500        18
 107.1000        14
 107.1500        13
 107.2000        11
 107.2500         9
 107.3000        20
 107.3500        11
 107.4000        16
 107.4500        10
 107.5000        10
 107.5500         9
 107.6000        12
 107.6500        12
 107.7000        17
 107.7500         8
 107.8000         8
 107.8500        16
 107.9000        16
 107.9500         8
 108.0000        11
 108.0500         8
 108.1000        11
 108.1500         8
 108.2000        10
 108.2500         6
 108.3000         9
 108.3500        14
 108.4000        14
 108.4500        14
 108.5000        12
 108.5500         8
 108.6000         9
 108.6500        12
 108.7000        11
 108.7500        16
 108.8000         8
 108.8500        14
 108.9000        18
 108.9500        13
 109.0000         8
 109.0500         7
 109.1000         8
 109.1500        10
 109.2000        13
 109.2500        12
 109.3000        14
 109.3500        12
 109.4000         7
 109.4500         8
 109.5000        15
 109.5500        13
 109.6000        13
 109.6500        14
 109.7000        14
 109.7500         6
 109.8000        10
 109.8500        14
 109.9000        14
 109.9500        13
 110.0000        10
