  20.0000         2
  20.0500         2
  20.1000         3
  20.1500         0
  20.2000         4
  20.2500         3
  20.3000         0
  20.3500         2
  20.4000         4
  20.4500         3
  20.5000         6
  20.5500         1
  20.6000         2
  20.6500         1
  20.7000         2
  20.7500         4
  20.8000         2
  20.8500         2
  20.9000         3
  20.9500         4
  21.0000         4
  21.0500         4
  21.1000         1
  21.1500         1
  21.2000         1
  21.2500         3
  21.3000         3
  21.3500         3
  21.4000         0
  21.4500         2
  21.5000         2
  21.5500         1
  21.6000         3
  21.6500         1
  21.7000         2
  21.7500         3
  21.8000         0
  21.8500         2
  21.9000         0
  21.9500         4
  22.0000         4
  22.0500         3
  22.1000         9
  22.1500         5
  22.2000         2
  22.2500         6
  22.3000         2
  22.3500         4
  22.4000         3
  22.4500         0
  22.5000         5
  22.5500         4
  22.6000         4
  22.6500         1
  22.7000         3
  22.7500         7
  22.8000         4
  22.8500         4
  22.9000         3
  22.9500         5
  23.0000         5
  23.0500         2
  23.1000         2
  23.1500         3
  23.2000         3
  23.2500         4
  23.3000         6
  23.3500         4
  23.4000         6
  23.4500         4
  23.5000         2
  23.5500         2
  23.6000         4
  23.6500         2
  23.7000         4
  23.7500         6
  23.8000         5
  23.8500         2
  23.9000         3
  23.9500         2
  24.0000         0
  24.0500         4
  24.1000         4
  24.1500         7
  24.2000         4
  24.2500         4
  24.3000         2
  24.3500         3
  24.4000         1
  24.4500         5
  24.5000         2
  24.5500         7
  24.6000         2
  24.6500         3
  24.7000         3
  24.7500         4
  24.8000         4
  24.8500        10
  24.9000         3
  24.9500         5
  25.0000         4
  25.0500         1
  25.1000         2
  25.1500         5
  25.2000         1
  25.2500         1
  25.3000         1
  25.3500         3
  25.4000         1
  25.4500         4
  25.5000         3
  25.5500         3
  25.6000         6
  25.6500         6
  25.7000         3
  25.7500         3
  25.8000         1
  25.8500         6
  25.9000         1
  25.9500         4
  26.0000         3
  26.0500         3
  26.1000         5
  26.1500         1
  26.2000         1
  26.2500         6
  26.3000         5
  26.3500         1
  26.4000         6
  26.4500         1
  26.5000         2
  26.5500         3
  26.6000         4
  26.6500         4
  26.7000         5
  26.7500         4
  26.8000         8
  26.8500         7
  26.9000         4
  26.9500         6
  27.0000         1
  27.0500         7
  27.1000         5
  27.1500         4
  27.2000         3
  27.2500         5
  27.3000         4
  27.3500         3
  27.4000         3
  27.4500         4
  27.5000         3
  27.5500         7
  27.6000         1
  27.6500         6
  27.7000         3
  27.7500         2
  27.8000         4
  27.8500         6
  27.9000         3
  27.9500         6
  28.0000         7
  28.0500        10
  28.1000         3
  28.1500         6
  28.2000         0
  28.2500         2
  28.3000         4
  28.3500         3
  28.4000         6
  28.4500         6
  28.5000         3
  28.5500         2
  28.6000         3
  28.6500        11
  28.7000         5
  28.7500         7
  28.8000         3
  28.8500         6
  28.9000         8
  28.9500         7
  29.0000         3
  29.0500         7
  29.1000         5
  29.1500        11
  29.2000         6
  29.2500         1
  29.3000         3
  29.3500         5
  29.4000         5
  29.4500         5
  29.5000         5
  29.5500         5
  29.6000         6
  29.6500         5
  29.7000         4
  29.7500         7
  29.8000         8
  29.8500         8
  29.9000         8
  29.9500         8
  30.0000        11
  30.0500         4
  30.1000         5
  30.1500         6
  30.2000         4
  30.2500        15
  30.3000         8
  30.3500        10
  30.4000        16
  30.4500        17
  30.5000        36
  30.5500        47
  30.6000        62
  30.6500        99
  30.7000       101
  30.7500        79
  30.8000        66
  30.8500        28
  30.9000        25
  30.9500        19
  31.0000        17
  31.0500        31
  31.1000        37
  31.1500        74
  31.2000       158
  31.2500       311
  31.3000       381
  31.3500       404
  31.4000       372
  31.4500       256
  31.5000       124
  31.5500        43
  31.6000        26
  31.6500        18
  31.7000        14
  31.7500        16
  31.8000        45
  31.8500        26
  31.9000        55
  31.9500       110
  32.0000       188
  32.0500       246
  32.1000       243
  32.1500       177
  32.2000        96
  32.2500        47
  32.3000        20
  32.3500        15
  32.4000         6
  32.4500         7
  32.5000         1
  32.5500         6
  32.6000         6
  32.6500         9
  32.7000         6
  32.7500         5
  32.8000         8
  32.8500         5
  32.9000         7
  32.9500         3
  33.0000         3
  33.0500         9
  33.1000         5
  33.1500         9
  33.2000        10
  33.2500         2
  33.3000         6
  33.3500         6
  33.4000         6
  33.4500         4
  33.5000         6
  33.5500         4
  33.6000         6
  33.6500         7
  33.7000         4
  33.7500         2
  33.8000         8
  33.8500         6
  33.9000         6
  33.9500         1
  34.0000         3
  34.0500         4
  34.1000         4
  34.1500         5
  34.2000         5
  34.2500         3
  34.3000         3
  34.3500         7
  34.4000         7
  34.4500         3
  34.5000         5
  34.5500         2
  34.6000        10
  34.6500         4
  34.7000         8
  34.7500         6
  34.8000         2
  34.8500         5
  34.9000         4
  34.9500         2
  35.0000         4
  35.0500         6
  35.1000         1
  35.1500         8
  35.2000         3
  35.2500         3
  35.3000         8
  35.3500         3
  35.4000         6
  35.4500         8
  35.5000         4
  35.5500         6
  35.6000         8
  35.6500         5
  35.7000         4
  35.7500         7
  35.8000         6
  35.8500        10
  35.9000         6
  35.9500        10
  36.0000         8
  36.0500        11
  36.1000        19
  36.1500        37
  36.2000        80
  36.2500        98
  36.3000       202
  36.3500       164
  36.4000       153
  36.4500       125
  36.5000        64
  36.5500        35
  36.6000        14
  36.6500         8
  36.7000         6
  36.7500         7
  36.8000         9
  36.8500         4
  36.9000         6
  36.9500         5
  37.0000         4
  37.0500         6
  37.1000         7
  37.1500         6
  37.2000         8
  37.2500         6
  37.3000         5
  37.3500         8
  37.4000         3
  37.4500         7
  37.5000         4
  37.5500         3
  37.6000         4
  37.6500         5
  37.7000         3
  37.7500         7
  37.8000         2
  37.8500         2
  37.9000         5
  37.9500         2
  38.0000         5
  38.0500         6
  38.1000         4
  38.1500         5
  38.2000         3
  38.2500         7
  38.3000         4
  38.3500         5
  38.4000         2
  38.4500         3
  38.5000         5
  38.5500         4
  38.6000         1
  38.6500         8
  38.7000         4
  38.7500         4
  38.8000         2
  38.8500         5
  38.9000         2
  38.9500         1
  39.0000         4
  39.0500         3
  39.1000         1
  39.1500         0
  39.2000         4
  39.2500         3
  39.3000         4
  39.3500         1
  39.4000         3
  39.4500         5
  39.5000         3
  39.5500         1
  39.6000         2
  39.6500         2
  39.7000         2
  39.7500         4
  39.8000         4
  39.8500         5
  39.9000         3
  39.9500         4
  40.0000         1
  40.0500         4
  40.1000         3
  40.1500         3
  40.2000         2
  40.2500         4
  40.3000         4
  40.3500         5
  40.4000         1
  40.4500         7
  40.5000         2
  40.5500         2
  40.6000         5
  40.6500         9
  40.7000         5
  40.7500         2
  40.8000         6
  40.8500         3
  40.9000         2
  40.9500         2
  41.0000         3
  41.0500         9
  41.1000         5
  41.1500         4
  41.2000         3
  41.2500         2
  41.3000         3
  41.3500         2
  41.4000         3
  41.4500         1
  41.5000         1
  41.5500         4
  41.6000         1
  41.6500         3
  41.7000         7
  41.7500         3
  41.8000         1
  41.8500         6
  41.9000         8
  41.9500         2
  42.0000         3
  42.0500         4
  42.1000         5
  42.1500         3
  42.2000         1
  42.2500         1
  42.3000         2
  42.3500         3
  42.4000         3
  42.4500         2
  42.5000         3
  42.5500         2
  42.6000         6
  42.6500         4
  42.7000         4
  42.7500         6
  42.8000         6
  42.8500         5
  42.9000         3
  42.9500         0
  43.0000         2
  43.0500         3
  43.1000         4
  43.1500         4
  43.2000         4
  43.2500         4
  43.3000         2
  43.3500         4
  43.4000         6
  43.4500         7
  43.5000         3
  43.5500         3
  43.6000         2
  43.6500        15
  43.7000         5
  43.7500        12
  43.8000        37
  43.8500        49
  43.9000        44
  43.9500        43
  44.0000        28
  44.0500        20
  44.1000        12
  44.1500        10
  44.2000         3
  44.2500         5
  44.3000         8
  44.3500         5
  44.4000         4
  44.4500         5
  44.5000         4
  44.5500         4
  44.6000         4
  44.6500         3
  44.7000        12
  44.7500        14
  44.8000        45
  44.8500        78
  44.9000       129
  44.9500       135
  45.0000       131
  45.0500        96
  45.1000        72
  45.1500        38
  45.2000        24
  45.2500         4
  45.3000         8
  45.3500         4
  45.4000         7
  45.4500         5
  45.5000         2
  45.5500         4
  45.6000         4
  45.6500         3
  45.7000         3
  45.7500         1
  45.8000         4
  45.8500         3
  45.9000         4
  45.9500         5
  46.0000         1
  46.0500         4
  46.1000         5
  46.1500         4
  46.2000         2
  46.2500         3
  46.3000         0
  46.3500         4
  46.4000         4
  46.4500         5
  46.5000         6
  46.5500         2
  46.6000         1
  46.6500         2
  46.7000         4
  46.7500         3
  46.8000         2
  46.8500         2
  46.9000         3
  46.9500         3
  47.0000         3
  47.0500         4
  47.1000         4
  47.1500         5
  47.2000         4
  47.2500         4
  47.3000         1
  47.3500         1
  47.4000         1
  47.4500         4
  47.5000         4
  47.5500         3
  47.6000         1
  47.6500         1
  47.7000         4
  47.7500         2
  47.8000         2
  47.8500         4
  47.9000         3
  47.9500         3
  48.0000         2
  48.0500         2
  48.1000         3
  48.1500         4
  48.2000         2
  48.2500         4
  48.3000         4
  48.3500         5
  48.4000         4
  48.4500         1
  48.5000         1
  48.5500         2
  48.6000         3
  48.6500         2
  48.7000         1
  48.7500         6
  48.8000         2
  48.8500         3
  48.9000         1
  48.9500         4
  49.0000         3
  49.0500         4
  49.1000         1
  49.1500         4
  49.2000         2
  49.2500         2
  49.3000         3
  49.3500         4
  49.4000         3
  49.4500         0
  49.5000         3
  49.5500         6
  49.6000         2
  49.6500         2
  49.7000         3
  49.7500         5
  49.8000         2
  49.8500         2
  49.9000         3
  49.9500         3
  50.0000         2
  50.0500         4
  50.1000         4
  50.1500         3
  50.2000         4
  50.2500         2
  50.3000         3
  50.3500         4
  50.4000         5
  50.4500         1
  50.5000         5
  50.5500         4
  50.6000         4
  50.6500         1
  50.7000         1
  50.7500         5
  50.8000         4
  50.8500         0
  50.9000         4
  50.9500         1
  51.0000         2
  51.0500         3
  51.1000         4
  51.1500         7
  51.2000        10
  51.2500         2
  51.3000         6
  51.3500         6
  51.4000         3
  51.4500         2
  51.5000         1
  51.5500         5
  51.6000         1
  51.6500         3
  51.7000         3
  51.7500         5
  51.8000         5
  51.8500         2
  51.9000         4
  51.9500        10
  52.0000         8
  52.0500        13
  52.1000        21
  52.1500        37
  52.2000        70
  52.2500       103
  52.3000       145
  52.3500       118
  52.4000       107
  52.4500        84
  52.5000        39
  52.5500        18
  52.6000        15
  52.6500        10
  52.7000         5
  52.7500        10
  52.8000         6
  52.8500         6
  52.9000         4
  52.9500         3
  53.0000         4
  53.0500         6
  53.1000         5
  53.1500         7
  53.2000         3
  53.2500         3
  53.3000         1
  53.3500         1
  53.4000         3
  53.4500         2
  53.5000         3
  53.5500         2
  53.6000         0
  53.6500         2
  53.7000         6
  53.7500         6
  53.8000         5
  53.8500         4
  53.9000         3
  53.9500         4
  54.0000         4
  54.0500         4
  54.1000         6
  54.1500         1
  54.2000         2
  54.2500         2
  54.3000         7
  54.3500         7
  54.4000         6
  54.4500         5
  54.5000         7
  54.5500         6
  54.6000         4
  54.6500         6
  54.7000         1
  54.7500         5
  54.8000         2
  54.8500         3
  54.9000         3
  54.9500         2
  55.0000         7
  55.0500         3
  55.1000         7
  55.1500         5
  55.2000         5
  55.2500         9
  55.3000        32
  55.3500        22
  55.4000        35
  55.4500        29
  55.5000        31
  55.5500        18
  55.6000        19
  55.6500        12
  55.7000         6
  55.7500         5
  55.8000         6
  55.8500         2
  55.9000         3
  55.9500         4
  56.0000         3
  56.0500         3
  56.1000         1
  56.1500         4
  56.2000         3
  56.2500         4
  56.3000         0
  56.3500         6
  56.4000         2
  56.4500         2
  56.5000         4
  56.5500         4
  56.6000         4
  56.6500         2
  56.7000         4
  56.7500         6
  56.8000         4
  56.8500         1
  56.9000         4
  56.9500         3
  57.0000         4
  57.0500         3
  57.1000         6
  57.1500         4
  57.2000         2
  57.2500         0
  57.3000         3
  57.3500         3
  57.4000         3
  57.4500         9
  57.5000         5
  57.5500         3
  57.6000         6
  57.6500         6
  57.7000         6
  57.7500         1
  57.8000         3
  57.8500         3
  57.9000         2
  57.9500         4
  58.0000         2
  58.0500         4
  58.1000         2
  58.1500         5
  58.2000         3
  58.2500         7
  58.3000         4
  58.3500         5
  58.4000         1
  58.4500         4
  58.5000         3
  58.5500         2
  58.6000         5
  58.6500         6
  58.7000         2
  58.7500         3
  58.8000         5
  58.8500         5
  58.9000         5
  58.9500         2
  59.0000         5
  59.0500         4
  59.1000         5
  59.1500         4
  59.2000         5
  59.2500         2
  59.3000         6
  59.3500         2
  59.4000         4
  59.4500         6
  59.5000         4
  59.5500         4
  59.6000         1
  59.6500         5
  59.7000         3
  59.7500         4
  59.8000         2
  59.8500         5
  59.9000         6
  59.9500         5
  60.0000         8
  60.0500         5
  60.1000         5
  60.1500         8
  60.2000         5
  60.2500         5
  60.3000         5
  60.3500         5
  60.4000         6
  60.4500         2
  60.5000         4
  60.5500         6
  60.6000         6
  60.6500         3
  60.7000        10
  60.7500         7
  60.8000         2
  60.8500         2
  60.9000         3
  60.9500         5
  61.0000         4
  61.0500         8
  61.1000         4
  61.1500         5
  61.2000         4
  61.2500         6
  61.3000         4
  61.3500         9
  61.4000         3
  61.4500         7
  61.5000         7
  61.5500         4
  61.6000         7
  61.6500         2
  61.7000         4
  61.7500         3
  61.8000         9
  61.8500        13
  61.9000         6
  61.9500        11
  62.0000        14
  62.0500        23
  62.1000        40
  62.1500        71
  62.2000        93
  62.2500        83
  62.3000        88
  62.3500        74
  62.4000        71
  62.4500        73
  62.5000        96
  62.5500        59
  62.6000        43
  62.6500        41
  62.7000        45
  62.7500        41
  62.8000        19
  62.8500        10
  62.9000         8
  62.9500         7
  63.0000         8
  63.0500         6
  63.1000         4
  63.1500         5
  63.2000         1
  63.2500         8
  63.3000         6
  63.3500         8
  63.4000        10
  63.4500         6
  63.5000         6
  63.5500         5
  63.6000         7
  63.6500         6
  63.7000         5
  63.7500         9
  63.8000        11
  63.8500        18
  63.9000        18
  63.9500        16
  64.0000        13
  64.0500        13
  64.1000         6
  64.1500         9
  64.2000         2
  64.2500         5
  64.3000         6
  64.3500         2
  64.4000         4
  64.4500        11
  64.5000        12
  64.5500        27
  64.6000        46
  64.6500        20
  64.7000        28
  64.7500        20
  64.8000        26
  64.8500        26
  64.9000        11
  64.9500        10
  65.0000         7
  65.0500         5
  65.1000         3
  65.1500        10
  65.2000        16
  65.2500        25
  65.3000        43
  65.3500        26
  65.4000        34
  65.4500        27
  65.5000        16
  65.5500        14
  65.6000        13
  65.6500         8
  65.7000         7
  65.7500         3
  65.8000         3
  65.8500         8
  65.9000         6
  65.9500         4
  66.0000         5
  66.0500         5
  66.1000         5
  66.1500         7
  66.2000         4
  66.2500         4
  66.3000         2
  66.3500         1
  66.4000         5
  66.4500         4
  66.5000         6
  66.5500         2
  66.6000         1
  66.6500         4
  66.7000         4
  66.7500         6
  66.8000        11
  66.8500         2
  66.9000         6
  66.9500         4
  67.0000         6
  67.0500         5
  67.1000         4
  67.1500         3
  67.2000         2
  67.2500         4
  67.3000         3
  67.3500         1
  67.4000         4
  67.4500         4
  67.5000         6
  67.5500         3
  67.6000         3
  67.6500         4
  67.7000         4
  67.7500         4
  67.8000         1
  67.8500         7
  67.9000         3
  67.9500         2
  68.0000         1
  68.0500         1
  68.1000         3
  68.1500         5
  68.2000         5
  68.2500         3
  68.3000         3
  68.3500         3
  68.4000         2
  68.4500         5
  68.5000         1
  68.5500         6
  68.6000         2
  68.6500         6
  68.7000         6
  68.7500         4
  68.8000         4
  68.8500         5
  68.9000         2
  68.9500         0
  69.0000         5
  69.0500         3
  69.1000         1
  69.1500         3
  69.2000         2
  69.2500         5
  69.3000         3
  69.3500         3
  69.4000         4
  69.4500         6
  69.5000         3
  69.5500         6
  69.6000         1
  69.6500         3
  69.7000         6
  69.7500         1
  69.8000         5
  69.8500         1
  69.9000         2
  69.9500         2
  70.0000         2
  70.0500         2
  70.1000         2
  70.1500         3
  70.2000         4
  70.2500         4
  70.3000         2
  70.3500         3
  70.4000         3
  70.4500         6
  70.5000         3
  70.5500         6
  70.6000         2
  70.6500         3
  70.7000         1
  70.7500         7
  70.8000         3
  70.8500         2
  70.9000         2
  70.9500         4
  71.0000         0
  71.0500         5
  71.1000         2
  71.1500         7
  71.2000         3
  71.2500         5
  71.3000         3
  71.3500         2
  71.4000         3
  71.4500         3
  71.5000         1
  71.5500         3
  71.6000         1
  71.6500         3
  71.7000         6
  71.7500         6
  71.8000         0
  71.8500         3
  71.9000         3
  71.9500         2
  72.0000         5
  72.0500         3
  72.1000         5
  72.1500         7
  72.2000         5
  72.2500         3
  72.3000         4
  72.3500         9
  72.4000        14
  72.4500        22
  72.5000        23
  72.5500        13
  72.6000        12
  72.6500        10
  72.7000        19
  72.7500         8
  72.8000         6
  72.8500         7
  72.9000         9
  72.9500         2
  73.0000         3
  73.0500         9
  73.1000        11
  73.1500        14
  73.2000        17
  73.2500        17
  73.3000        17
  73.3500         9
  73.4000        19
  73.4500        16
  73.5000        12
  73.5500         7
  73.6000         4
  73.6500         2
  73.7000         3
  73.7500         3
  73.8000         6
  73.8500         4
  73.9000         8
  73.9500         2
  74.0000         1
  74.0500         1
  74.1000         4
  74.1500         2
  74.2000         3
  74.2500         1
  74.3000         0
  74.3500         3
  74.4000         3
  74.4500         5
  74.5000         6
  74.5500         9
  74.6000         3
  74.6500         2
  74.7000         4
  74.7500         6
  74.8000         2
  74.8500         5
  74.9000         2
  74.9500         1
  75.0000         8
  75.0500         4
  75.1000         4
  75.1500         3
  75.2000         5
  75.2500         7
  75.3000         5
  75.3500         1
  75.4000         1
  75.4500         7
  75.5000         6
  75.5500         2
  75.6000         0
  75.6500         1
  75.7000         5
  75.7500         3
  75.8000         2
  75.8500         3
  75.9000         1
  75.9500         4
  76.0000         2
  76.0500         1
  76.1000         3
  76.1500         1
  76.2000         3
  76.2500         5
  76.3000         1
  76.3500         3
  76.4000         3
  76.4500         4
  76.5000         3
  76.5500         1
  76.6000         2
  76.6500         2
  76.7000         3
  76.7500         5
  76.8000         4
  76.8500         4
  76.9000         3
  76.9500         5
  77.0000        11
  77.0500         8
  77.1000        14
  77.1500        12
  77.2000         7
  77.2500         4
  77.3000        11
  77.3500         2
  77.4000         9
  77.4500         4
  77.5000         6
  77.5500         5
  77.6000         2
  77.6500         1
  77.7000         5
  77.7500         3
  77.8000         4
  77.8500         3
  77.9000         2
  77.9500         2
  78.0000         3
  78.0500         7
  78.1000         3
  78.1500         3
  78.2000         2
  78.2500         6
  78.3000         3
  78.3500         4
  78.4000         2
  78.4500         3
  78.5000         6
  78.5500         0
  78.6000         2
  78.6500         4
  78.7000         6
  78.7500         1
  78.8000         1
  78.8500         2
  78.9000         1
  78.9500         5
  79.0000         1
  79.0500         5
  79.1000         2
  79.1500         4
  79.2000         5
  79.2500         3
  79.3000         3
  79.3500         3
  79.4000         9
  79.4500        27
  79.5000        32
  79.5500        41
  79.6000        36
  79.6500        21
  79.7000        25
  79.7500        20
  79.8000        19
  79.8500        19
  79.9000        11
  79.9500         7
  80.0000         2
  80.0500         3
  80.1000         3
  80.1500         4
  80.2000         8
  80.2500         6
  80.3000         2
  80.3500         1
  80.4000         4
  80.4500         2
  80.5000         2
  80.5500         6
  80.6000         5
  80.6500         3
  80.7000         2
  80.7500         5
  80.8000         3
  80.8500         3
  80.9000         2
  80.9500         3
  81.0000         0
  81.0500         3
  81.1000         3
  81.1500         1
  81.2000         3
  81.2500         2
  81.3000         3
  81.3500         0
  81.4000         2
  81.4500         8
  81.5000         1
  81.5500         5
  81.6000         2
  81.6500         3
  81.7000         3
  81.7500         3
  81.8000         3
  81.8500         3
  81.9000         3
  81.9500         4
  82.0000         5
  82.0500         3
  82.1000         4
  82.1500         4
  82.2000         2
  82.2500         2
  82.3000         5
  82.3500         4
  82.4000         4
  82.4500         4
  82.5000         0
  82.5500         3
  82.6000         7
  82.6500         2
  82.7000         2
  82.7500         2
  82.8000         0
  82.8500         3
  82.9000         1
  82.9500         1
  83.0000         4
  83.0500         3
  83.1000         5
  83.1500         0
  83.2000         2
  83.2500         3
  83.3000         3
  83.3500         2
  83.4000         4
  83.4500         5
  83.5000         3
  83.5500         4
  83.6000         4
  83.6500         3
  83.7000         0
  83.7500         3
  83.8000         4
  83.8500         4
  83.9000         2
  83.9500         4
  84.0000         4
  84.0500         3
  84.1000         1
  84.1500         4
  84.2000         3
  84.2500         2
  84.3000         6
  84.3500         3
  84.4000         5
  84.4500         6
  84.5000         2
  84.5500         2
  84.6000         2
  84.6500         1
  84.7000         3
  84.7500         3
  84.8000         3
  84.8500         1
  84.9000         5
  84.9500         3
  85.0000         5
  85.0500         2
  85.1000         5
  85.1500         5
  85.2000         4
  85.2500         2
  85.3000         7
  85.3500        10
  85.4000         9
  85.4500        16
  85.5000        19
  85.5500        23
  85.6000        26
  85.6500        16
  85.7000        14
  85.7500        23
  85.8000         7
  85.8500        14
  85.9000         8
  85.9500         8
  86.0000         9
  86.0500         6
  86.1000         2
  86.1500         3
  86.2000         2
  86.2500         6
  86.3000         6
  86.3500         4
  86.4000         2
  86.4500         7
  86.5000         3
  86.5500         0
  86.6000         6
  86.6500         4
  86.7000         6
  86.7500         4
  86.8000         1
  86.8500         4
  86.9000         5
  86.9500         2
  87.0000         4
  87.0500         4
  87.1000         3
  87.1500         2
  87.2000         4
  87.2500         0
  87.3000         4
  87.3500         2
  87.4000         3
  87.4500         5
  87.5000         3
  87.5500         4
  87.6000         2
  87.6500         4
  87.7000         4
  87.7500         1
  87.8000         3
  87.8500         1
  87.9000         1
  87.9500         3
  88.0000         5
  88.0500        10
  88.1000         5
  88.1500        10
  88.2000        15
  88.2500        28
  88.3000        25
  88.3500        22
  88.4000        17
  88.4500        14
  88.5000        15
  88.5500        13
  88.6000        18
  88.6500         9
  88.7000        11
  88.7500        10
  88.8000         2
  88.8500         4
  88.9000         5
  88.9500         6
  89.0000         7
  89.0500         1
  89.1000         6
  89.1500         4
  89.2000         2
  89.2500         4
  89.3000         6
  89.3500        13
  89.4000        19
  89.4500        11
  89.5000        13
  89.5500        19
  89.6000        10
  89.6500         9
  89.7000         8
  89.7500        13
  89.8000         8
  89.8500         3
  89.9000         4
  89.9500         2
  90.0000         5
  90.0500         2
  90.1000         5
  90.1500         2
  90.2000         4
  90.2500         2
  90.3000         4
  90.3500         1
  90.4000         5
  90.4500         6
  90.5000         3
  90.5500         1
  90.6000         3
  90.6500         4
  90.7000         5
  90.7500         6
  90.8000         8
  90.8500         0
  90.9000         5
  90.9500         2
  91.0000         6
  91.0500         3
  91.1000         2
  91.1500         6
  91.2000         1
  91.2500         3
  91.3000         4
  91.3500         3
  91.4000         2
  91.4500         1
  91.5000         0
  91.5500         3
  91.6000         1
  91.6500         4
  91.7000         4
  91.7500         4
  91.8000         5
  91.8500         3
  91.9000         4
  91.9500         0
  92.0000         2
  92.0500         4
  92.1000         2
  92.1500         5
  92.2000         2
  92.2500         4
  92.3000         3
  92.3500         2
  92.4000         2
  92.4500         3
  92.5000         7
  92.5500         3
  92.6000         3
  92.6500         3
  92.7000         4
  92.7500         6
  92.8000         6
  92.8500         3
  92.9000         3
  92.9500         4
  93.0000         4
  93.0500         4
  93.1000         1
  93.1500         6
  93.2000         4
  93.2500         3
  93.3000         5
  93.3500         4
  93.4000         6
  93.4500         2
  93.5000         2
  93.5500         2
  93.6000         2
  93.6500         1
  93.7000         2
  93.7500         5
  93.8000         4
  93.8500         3
  93.9000         5
  93.9500         2
  94.0000         7
  94.0500         3
  94.1000         2
  94.1500         3
  94.2000         3
  94.2500         5
  94.3000         4
  94.3500         4
  94.4000         1
  94.4500         5
  94.5000         4
  94.5500         1
  94.6000         2
  94.6500         3
  94.7000         1
  94.7500         3
  94.8000         2
  94.8500         4
  94.9000         4
  94.9500         4
  95.0000         3
  95.0500         5
  95.1000         8
  95.1500         7
  95.2000         9
  95.2500         3
  95.3000         1
  95.3500         7
  95.4000         5
  95.4500         8
  95.5000        16
  95.5500        10
  95.6000         2
  95.6500         8
  95.7000         6
  95.7500         6
  95.8000         6
  95.8500        11
  95.9000         9
  95.9500         4
  96.0000        12
  96.0500         8
  96.1000         1
  96.1500         4
  96.2000         4
  96.2500         2
  96.3000         4
  96.3500         3
  96.4000         4
  96.4500         4
  96.5000         5
  96.5500         4
  96.6000         5
  96.6500        10
  96.7000         4
  96.7500         4
  96.8000         7
  96.8500         8
  96.9000         4
  96.9500         5
  97.0000         3
  97.0500         5
  97.1000         2
  97.1500         3
  97.2000         4
  97.2500         4
  97.3000         3
  97.3500         6
  97.4000         6
  97.4500        10
  97.5000         9
  97.5500        15
  97.6000         4
  97.6500         4
  97.7000         1
  97.7500         9
  97.8000         4
  97.8500         6
  97.9000         2
  97.9500         6
  98.0000         2
  98.0500         5
  98.1000         2
  98.1500         5
  98.2000         3
  98.2500         5
  98.3000         8
  98.3500         5
  98.4000         4
  98.4500         1
  98.5000         6
  98.5500         4
  98.6000         4
  98.6500         3
  98.7000         4
  98.7500         6
  98.8000         4
  98.8500         2
  98.9000         4
  98.9500         1
  99.0000         6
  99.0500         1
  99.1000         7
  99.1500         4
  99.2000         5
  99.2500         4
  99.3000         9
  99.3500         8
  99.4000        16
  99.4500        11
  99.5000        24
  99.5500        19
  99.6000         8
  99.6500         5
  99.7000         8
  99.7500        13
  99.8000         7
  99.8500        10
  99.9000         8
  99.9500         4
 100.0000         8
 100.0500         2
 100.1000         0
 100.1500         8
 100.2000         4
 100.2500         2
 100.3000         4
 100.3500         2
 100.4000         0
 100.4500         3
 100.5000         5
 100.5500         4
 100.6000         3
 100.6500         4
 100.7000         7
 100.7500         4
 100.8000         7
 100.8500         1
 100.9000         3
 100.9500         3
 101.0000         5
 101.0500         5
 101.1000         4
 101.1500         6
 101.2000         5
 101.2500         3
 101.3000         3
 101.3500         4
 101.4000         4
 101.4500         0
 101.5000         4
 101.5500         6
 101.6000         1
 101.6500         5
 101.7000         3
 101.7500         5
 101.8000         6
 101.8500         4
 101.9000         5
 101.9500         4
 102.0000         4
 102.0500         6
 102.1000         4
 102.1500         2
 102.2000         2
 102.2500         2
 102.3000         4
 102.3500         3
 102.4000         2
 102.4500         5
 102.5000         3
 102.5500         2
 102.6000         4
 102.6500         3
 102.7000         3
 102.7500         2
 102.8000         3
 102.8500         6
 102.9000         6
 102.9500         3
 103.0000         1
 103.0500         7
 103.1000         4
 103.1500         3
 103.2000         5
 103.2500        11
 103.3000        15
 103.3500        12
 103.4000         9
 103.4500         8
 103.5000         4
 103.5500         3
 103.6000        13
 103.6500         3
 103.7000         6
 103.7500         5
 103.8000         3
 103.8500         1
 103.9000         5
 103.9500         1
 104.0000         4
 104.0500         3
 104.1000         3
 104.1500         3
 104.2000         6
 104.2500         6
 104.3000         5
 104.3500         1
 104.4000         4
 104.4500         3
 104.5000         4
 104.5500         3
 104.6000         2
 104.6500         2
 104.7000         7
 104.7500         4
 104.8000         4
 104.8500         9
 104.9000         3
 104.9500         4
 105.0000         4
 105.0500         4
 105.1000         6
 105.1500         6
 105.2000         7
 105.2500         4
 105.3000         9
 105.3500         0
 105.4000         4
 105.4500         3
 105.5000         7
 105.5500         3
 105.6000         5
 105.6500         0
 105.7000         2
 105.7500         3
 105.8000         3
 105.8500         3
 105.9000         5
 105.9500         4
 106.0000         3
 106.0500         1
 106.1000         6
 106.1500         4
 106.2000         4
 106.2500         1
 106.3000         2
 106.3500         1
 106.4000         3
 106.4500         4
 106.5000         1
 106.5500         4
 106.6000         2
 106.6500         5
 106.7000         0
 106.7500         3
 106.8000         4
 106.8500         1
 106.9000         3
 106.9500         7
 107.0000        10
 107.0500         3
 107.1000         5
 107.1500         4
 107.2000         7
 107.2500         4
 107.3000         4
 107.3500         5
 107.4000         5
 107.4500         5
 107.5000         3
 107.5500         4
 107.6000         3
 107.6500         4
 107.7000         4
 107.7500         5
 107.8000         8
 107.8500        11
 107.9000        10
 107.9500         9
 108.0000        29
 108.0500        24
 108.1000        16
 108.1500        19
 108.2000         8
 108.2500         8
 108.3000         8
 108.3500        13
 108.4000        18
 108.4500        17
 108.5000         9
 108.5500         4
 108.6000         6
 108.6500         5
 108.7000         6
 108.7500         9
 108.8000         3
 108.8500        11
 108.9000         2
 108.9500         6
 109.0000         4
 109.0500         3
 109.1000         2
 109.1500         2
 109.2000         6
 109.2500         6
 109.3000         4
 109.3500         3
 109.4000         1
 109.4500         3
 109.5000         4
 109.5500         7
 109.6000         5
 109.6500         5
 109.7000         2
 109.7500         3
 109.8000         2
 109.8500         4
 109.9000        10
 109.9500         4
 110.0000         4
