  20.0000         1
  20.0500         1
  20.1000         1
  20.1500         3
  20.2000         5
  20.2500         1
  20.3000         4
  20.3500         3
  20.4000         6
  20.4500         2
  20.5000         0
  20.5500         2
  20.6000         5
  20.6500         1
  20.7000         1
  20.7500         4
  20.8000         3
  20.8500         2
  20.9000         1
  20.9500         1
  21.0000         2
  21.0500         1
  21.1000         3
  21.1500         4
  21.2000         3
  21.2500         6
  21.3000         5
  21.3500         2
  21.4000         2
  21.4500         4
  21.5000         6
  21.5500         2
  21.6000         4
  21.6500         2
  21.7000         4
  21.7500         1
  21.8000         3
  21.8500         4
  21.9000         6
  21.9500         5
  22.0000         3
  22.0500         4
  22.1000         3
  22.1500         4
  22.2000         4
  22.2500         1
  22.3000         6
  22.3500         4
  22.4000         7
  22.4500         2
  22.5000         3
  22.5500         7
  22.6000         6
  22.6500         3
  22.7000         5
  22.7500         2
  22.8000         2
  22.8500         3
  22.9000         3
  22.9500         4
  23.0000         4
  23.0500         4
  23.1000         1
  23.1500         4
  23.2000         3
  23.2500         6
  23.3000         4
  23.3500         5
  23.4000         5
  23.4500         4
  23.5000         2
  23.5500         2
  23.6000         3
  23.6500         0
  23.7000         5
  23.7500         3
  23.8000         5
  23.8500         4
  23.9000         0
  23.9500         4
  24.0000         5
  24.0500         4
  24.1000         1
  24.1500         3
  24.2000         3
  24.2500         4
  24.3000         3
  24.3500         4
  24.4000         2
  24.4500         2
  24.5000         3
  24.5500         6
  24.6000         4
  24.6500         4
  24.7000         4
  24.7500         6
  24.8000         6
  24.8500         5
  24.9000         3
  24.9500         3
  25.0000         1
  25.0500         6
  25.1000         2
  25.1500         3
  25.2000         2
  25.2500        10
  25.3000         4
  25.3500         2
  25.4000         3
  25.4500         7
  25.5000         2
  25.5500         3
  25.6000         3
  25.6500         3
  25.7000         4
  25.7500         7
  25.8000         2
  25.8500         0
  25.9000         3
  25.9500         3
  26.0000         6
  26.0500         5
  26.1000         6
  26.1500         2
  26.2000         4
  26.2500         4
  26.3000         4
  26.3500         4
  26.4000         5
  26.4500         3
  26.5000         3
  26.5500         2
  26.6000         6
  26.6500         4
  26.7000         2
  26.7500         5
  26.8000         9
  26.8500         4
  26.9000         8
  26.9500         5
  27.0000         3
  27.0500         5
  27.1000         7
  27.1500         7
  27.2000         5
  27.2500        11
  27.3000         3
  27.3500         6
  27.4000         4
  27.4500         7
  27.5000         3
  27.5500         3
  27.6000         3
  27.6500         1
  27.7000         2
  27.7500         3
  27.8000         5
  27.8500         5
  27.9000         7
  27.9500         6
  28.0000         6
  28.0500         6
  28.1000         4
  28.1500         2
  28.2000         3
  28.2500         2
  28.3000         5
  28.3500         3
  28.4000         7
  28.4500         6
  28.5000         3
  28.5500         6
  28.6000         8
  28.6500         7
  28.7000         9
  28.7500         7
  28.8000         6
  28.8500         4
  28.9000         4
  28.9500         2
  29.0000        10
  29.0500         6
  29.1000         6
  29.1500         7
  29.2000         8
  29.2500        10
  29.3000         8
  29.3500         3
  29.4000         6
  29.4500         6
  29.5000         6
  29.5500        11
  29.6000         6
  29.6500         4
  29.7000         5
  29.7500        11
  29.8000         7
  29.8500        10
  29.9000         5
  29.9500         4
  30.0000        10
  30.0500         9
  30.1000         6
  30.1500         6
  30.2000         8
  30.2500         9
  30.3000         7
  30.3500        13
  30.4000        15
  30.4500        19
  30.5000        12
  30.5500        22
  30.6000        35
  30.6500        56
  30.7000        90
  30.7500        64
  30.8000        64
  30.8500        56
  30.9000        27
  30.9500        21
  31.0000        30
  31.0500        28
  31.1000        63
  31.1500        98
  31.2000       258
  31.2500       472
  31.3000       616
  31.3500       770
  31.4000       735
  31.4500       481
  31.5000       308
  31.5500       121
  31.6000        53
  31.6500        30
  31.7000        20
  31.7500        13
  31.8000        21
  31.8500        28
  31.9000        35
  31.9500        59
  32.0000       150
  32.0500       190
  32.1000       204
  32.1500       141
  32.2000        62
  32.2500        39
  32.3000        18
  32.3500        17
  32.4000        11
  32.4500         9
  32.5000         2
  32.5500        10
  32.6000         6
  32.6500        10
  32.7000         8
  32.7500         9
  32.8000         8
  32.8500         9
  32.9000        11
  32.9500         5
  33.0000         7
  33.0500         6
  33.1000         9
  33.1500         7
  33.2000         1
  33.2500         8
  33.3000         6
  33.3500        10
  33.4000         4
  33.4500         8
  33.5000         5
  33.5500         5
  33.6000         6
  33.6500         6
  33.7000         2
  33.7500         6
  33.8000         6
  33.8500         1
  33.9000         7
  33.9500         6
  34.0000         8
  34.0500         7
  34.1000         5
  34.1500        10
  34.2000         6
  34.2500         2
  34.3000         6
  34.3500         7
  34.4000         5
  34.4500         3
  34.5000         6
  34.5500         8
  34.6000         5
  34.6500         5
  34.7000         6
  34.7500         9
  34.8000         4
  34.8500         5
  34.9000         4
  34.9500         4
  35.0000         8
  35.0500         5
  35.1000         4
  35.1500         8
  35.2000         1
  35.2500         7
  35.3000        10
  35.3500         9
  35.4000         8
  35.4500         9
  35.5000        11
  35.5500        10
  35.6000         9
  35.6500         7
  35.7000        11
  35.7500        10
  35.8000         5
  35.8500         9
  35.9000        17
  35.9500        12
  36.0000        16
  36.0500        22
  36.1000        34
  36.1500        62
  36.2000        95
  36.2500       206
  36.3000       297
  36.3500       350
  36.4000       336
  36.4500       238
  36.5000       163
  36.5500        71
  36.6000        40
  36.6500        22
  36.7000        18
  36.7500         7
  36.8000        11
  36.8500         6
  36.9000         6
  36.9500         7
  37.0000         4
  37.0500         6
  37.1000         6
  37.1500         3
  37.2000         5
  37.2500         5
  37.3000         6
  37.3500         3
  37.4000         7
  37.4500         5
  37.5000         2
  37.5500         4
  37.6000         5
  37.6500         6
  37.7000         3
  37.7500         6
  37.8000         6
  37.8500         4
  37.9000         4
  37.9500         6
  38.0000         3
  38.0500         3
  38.1000         1
  38.1500         0
  38.2000         1
  38.2500         4
  38.3000         6
  38.3500         4
  38.4000         3
  38.4500         3
  38.5000         2
  38.5500         2
  38.6000         5
  38.6500         4
  38.7000         9
  38.7500         4
  38.8000         5
  38.8500         4
  38.9000         5
  38.9500         2
  39.0000         6
  39.0500         5
  39.1000         5
  39.1500         6
  39.2000         3
  39.2500         5
  39.3000         4
  39.3500         2
  39.4000         3
  39.4500         2
  39.5000         7
  39.5500         1
  39.6000         6
  39.6500         0
  39.7000         6
  39.7500         2
  39.8000         7
  39.8500         2
  39.9000         4
  39.9500         3
  40.0000         4
  40.0500         4
  40.1000         6
  40.1500         5
  40.2000         5
  40.2500         2
  40.3000         9
  40.3500         3
  40.4000         5
  40.4500         5
  40.5000         3
  40.5500         4
  40.6000         3
  40.6500         4
  40.7000         4
  40.7500         4
  40.8000         2
  40.8500         6
  40.9000         1
  40.9500         4
  41.0000         0
  41.0500         4
  41.1000         4
  41.1500         3
  41.2000         4
  41.2500         4
  41.3000         7
  41.3500         4
  41.4000         4
  41.4500         4
  41.5000         5
  41.5500         2
  41.6000         8
  41.6500         4
  41.7000         3
  41.7500         6
  41.8000         1
  41.8500         4
  41.9000         3
  41.9500         8
  42.0000         3
  42.0500         6
  42.1000         3
  42.1500         5
  42.2000         3
  42.2500         5
  42.3000         3
  42.3500         5
  42.4000         5
  42.4500         4
  42.5000         4
  42.5500         3
  42.6000        11
  42.6500         2
  42.7000         4
  42.7500         0
  42.8000         5
  42.8500         5
  42.9000         2
  42.9500         3
  43.0000         3
  43.0500         2
  43.1000         3
  43.1500         8
  43.2000         6
  43.2500         3
  43.3000         3
  43.3500         5
  43.4000         2
  43.4500         3
  43.5000         5
  43.5500         4
  43.6000         3
  43.6500         3
  43.7000         3
  43.7500        10
  43.8000        12
  43.8500        25
  43.9000        30
  43.9500        42
  44.0000        32
  44.0500        20
  44.1000        16
  44.1500         7
  44.2000         4
  44.2500         9
  44.3000         8
  44.3500         2
  44.4000         4
  44.4500         4
  44.5000         4
  44.5500         2
  44.6000         8
  44.6500         3
  44.7000         6
  44.7500        14
  44.8000        33
  44.8500        52
  44.9000        66
  44.9500       105
  45.0000        86
  45.0500        82
  45.1000        64
  45.1500        30
  45.2000        16
  45.2500        12
  45.3000         7
  45.3500         3
  45.4000         4
  45.4500         7
  45.5000         7
  45.5500         2
  45.6000         3
  45.6500         2
  45.7000         4
  45.7500         6
  45.8000         1
  45.8500         2
  45.9000         2
  45.9500         6
  46.0000         1
  46.0500         4
  46.1000         5
  46.1500         4
  46.2000         5
  46.2500         2
  46.3000         4
  46.3500         4
  46.4000         5
  46.4500         3
  46.5000         2
  46.5500         3
  46.6000         4
  46.6500         2
  46.7000         3
  46.7500         2
  46.8000         1
  46.8500         3
  46.9000         6
  46.9500         5
  47.0000         0
  47.0500         4
  47.1000         1
  47.1500         2
  47.2000         5
  47.2500         3
  47.3000         2
  47.3500         3
  47.4000         2
  47.4500         3
  47.5000         2
  47.5500         7
  47.6000         1
  47.6500         2
  47.7000         1
  47.7500         2
  47.8000         3
  47.8500         2
  47.9000         1
  47.9500         5
  48.0000         8
  48.0500         3
  48.1000         4
  48.1500         4
  48.2000         2
  48.2500         5
  48.3000         4
  48.3500         2
  48.4000         5
  48.4500         5
  48.5000         3
  48.5500         1
  48.6000         5
  48.6500         2
  48.7000         3
  48.7500         1
  48.8000         1
  48.8500         5
  48.9000         0
  48.9500         2
  49.0000         1
  49.0500         5
  49.1000         1
  49.1500         1
  49.2000         3
  49.2500         6
  49.3000         1
  49.3500         6
  49.4000         2
  49.4500         3
  49.5000         2
  49.5500         4
  49.6000         4
  49.6500         7
  49.7000         3
  49.7500         2
  49.8000         3
  49.8500         2
  49.9000         1
  49.9500         5
  50.0000         3
  50.0500         5
  50.1000         3
  50.1500         3
  50.2000         5
  50.2500         2
  50.3000         7
  50.3500         5
  50.4000         5
  50.4500         3
  50.5000         2
  50.5500         6
  50.6000         2
  50.6500         6
  50.7000         7
  50.7500         3
  50.8000         5
  50.8500         6
  50.9000         4
  50.9500         5
  51.0000         1
  51.0500         6
  51.1000         1
  51.1500         3
  51.2000         4
  51.2500         7
  51.3000         6
  51.3500         5
  51.4000         3
  51.4500         2
  51.5000         6
  51.5500         3
  51.6000         9
  51.6500         3
  51.7000         7
  51.7500         3
  51.8000         5
  51.8500         7
  51.9000         6
  51.9500        14
  52.0000         9
  52.0500        11
  52.1000        27
  52.1500        34
  52.2000        58
  52.2500        98
  52.3000       149
  52.3500       128
  52.4000       129
  52.4500       112
  52.5000        61
  52.5500        33
  52.6000        19
  52.6500        18
  52.7000        13
  52.7500        11
  52.8000        11
  52.8500         7
  52.9000         5
  52.9500         7
  53.0000         8
  53.0500         3
  53.1000         6
  53.1500         2
  53.2000         0
  53.2500         9
  53.3000         6
  53.3500         5
  53.4000         7
  53.4500         6
  53.5000         3
  53.5500         3
  53.6000         4
  53.6500         1
  53.7000         2
  53.7500         9
  53.8000         9
  53.8500         4
  53.9000         4
  53.9500         6
  54.0000         6
  54.0500         5
  54.1000         3
  54.1500         3
  54.2000         6
  54.2500         5
  54.3000         4
  54.3500         4
  54.4000         6
  54.4500         4
  54.5000         4
  54.5500         3
  54.6000         5
  54.6500         2
  54.7000         2
  54.7500         2
  54.8000         4
  54.8500         5
  54.9000         7
  54.9500         2
  55.0000         8
  55.0500         7
  55.1000         6
  55.1500         3
  55.2000         9
  55.2500        15
  55.3000        21
  55.3500        36
  55.4000        38
  55.4500        29
  55.5000        30
  55.5500        21
  55.6000        17
  55.6500        12
  55.7000         4
  55.7500         4
  55.8000         3
  55.8500         2
  55.9000         6
  55.9500        11
  56.0000         6
  56.0500         2
  56.1000        12
  56.1500        10
  56.2000         7
  56.2500         3
  56.3000         5
  56.3500         9
  56.4000         5
  56.4500         2
  56.5000         4
  56.5500         2
  56.6000         4
  56.6500         2
  56.7000        10
  56.7500         6
  56.8000         6
  56.8500         3
  56.9000         3
  56.9500         5
  57.0000         8
  57.0500         2
  57.1000         5
  57.1500         4
  57.2000         2
  57.2500         5
  57.3000         3
  57.3500         6
  57.4000        10
  57.4500         6
  57.5000         6
  57.5500         3
  57.6000         7
  57.6500         4
  57.7000         6
  57.7500         8
  57.8000         4
  57.8500         1
  57.9000         7
  57.9500         4
  58.0000         4
  58.0500         4
  58.1000         8
  58.1500         5
  58.2000         5
  58.2500         5
  58.3000         2
  58.3500         5
  58.4000         4
  58.4500         2
  58.5000         4
  58.5500         7
  58.6000         4
  58.6500         4
  58.7000         4
  58.7500         2
  58.8000         6
  58.8500         7
  58.9000         4
  58.9500         4
  59.0000         6
  59.0500         9
  59.1000         3
  59.1500         1
  59.2000         2
  59.2500         4
  59.3000         5
  59.3500         6
  59.4000         6
  59.4500         5
  59.5000         5
  59.5500         5
  59.6000        11
  59.6500         7
  59.7000         2
  59.7500         5
  59.8000         4
  59.8500         3
  59.9000         7
  59.9500         7
  60.0000         3
  60.0500         9
  60.1000         3
  60.1500         6
  60.2000         6
  60.2500         6
  60.3000         4
  60.3500         3
  60.4000         9
  60.4500         8
  60.5000         6
  60.5500         6
  60.6000         7
  60.6500         9
  60.7000         8
  60.7500        11
  60.8000         6
  60.8500         7
  60.9000         8
  60.9500         5
  61.0000        10
  61.0500         4
  61.1000        12
  61.1500        11
  61.2000         6
  61.2500         8
  61.3000         7
  61.3500         8
  61.4000        10
  61.4500         5
  61.5000         3
  61.5500         8
  61.6000         6
  61.6500        12
  61.7000         7
  61.7500         8
  61.8000        10
  61.8500        15
  61.9000        11
  61.9500        15
  62.0000        18
  62.0500        29
  62.1000        47
  62.1500       100
  62.2000       147
  62.2500       168
  62.3000       145
  62.3500       113
  62.4000       109
  62.4500        86
  62.5000        64
  62.5500        69
  62.6000        59
  62.6500        29
  62.7000        34
  62.7500        18
  62.8000        22
  62.8500        18
  62.9000        13
  62.9500        13
  63.0000        11
  63.0500         5
  63.1000         7
  63.1500         8
  63.2000         6
  63.2500         5
  63.3000        13
  63.3500         7
  63.4000         3
  63.4500         7
  63.5000         5
  63.5500         8
  63.6000         3
  63.6500         5
  63.7000         9
  63.7500        11
  63.8000        16
  63.8500        14
  63.9000        15
  63.9500         9
  64.0000         7
  64.0500         7
  64.1000         6
  64.1500         6
  64.2000         4
  64.2500         3
  64.3000         7
  64.3500         6
  64.4000         6
  64.4500         5
  64.5000        17
  64.5500        20
  64.6000        15
  64.6500        22
  64.7000        27
  64.7500        22
  64.8000         5
  64.8500         7
  64.9000        12
  64.9500         6
  65.0000         7
  65.0500         8
  65.1000        10
  65.1500        16
  65.2000        22
  65.2500        59
  65.3000        61
  65.3500        73
  65.4000        61
  65.4500        48
  65.5000        42
  65.5500        30
  65.6000        22
  65.6500        14
  65.7000         6
  65.7500         3
  65.8000         6
  65.8500         9
  65.9000         8
  65.9500         2
  66.0000         5
  66.0500         6
  66.1000         5
  66.1500         2
  66.2000         7
  66.2500         5
  66.3000         3
  66.3500         8
  66.4000         4
  66.4500         1
  66.5000         4
  66.5500         4
  66.6000         2
  66.6500         8
  66.7000         4
  66.7500         3
  66.8000         2
  66.8500         2
  66.9000         2
  66.9500         3
  67.0000         5
  67.0500         5
  67.1000         5
  67.1500         7
  67.2000         5
  67.2500         7
  67.3000         5
  67.3500         4
  67.4000         5
  67.4500         4
  67.5000         2
  67.5500         6
  67.6000         2
  67.6500         0
  67.7000         6
  67.7500         3
  67.8000         3
  67.8500         4
  67.9000         2
  67.9500         8
  68.0000         5
  68.0500         8
  68.1000         5
  68.1500         7
  68.2000         3
  68.2500         4
  68.3000         4
  68.3500         9
  68.4000         2
  68.4500         2
  68.5000         3
  68.5500         3
  68.6000         5
  68.6500         3
  68.7000         3
  68.7500         5
  68.8000         3
  68.8500         3
  68.9000         8
  68.9500         3
  69.0000         4
  69.0500         3
  69.1000         2
  69.1500         4
  69.2000         2
  69.2500         3
  69.3000         2
  69.3500         5
  69.4000         5
  69.4500         4
  69.5000         8
  69.5500         7
  69.6000         3
  69.6500         1
  69.7000         5
  69.7500         4
  69.8000         1
  69.8500         2
  69.9000         3
  69.9500         4
  70.0000         4
  70.0500         4
  70.1000         5
  70.1500         5
  70.2000         2
  70.2500         3
  70.3000         3
  70.3500         5
  70.4000         2
  70.4500         3
  70.5000         7
  70.5500         3
  70.6000         2
  70.6500         3
  70.7000         2
  70.7500         6
  70.8000         6
  70.8500         4
  70.9000         5
  70.9500         2
  71.0000         4
  71.0500         3
  71.1000         1
  71.1500         3
  71.2000         2
  71.2500         3
  71.3000         8
  71.3500         7
  71.4000         5
  71.4500         8
  71.5000         4
  71.5500         3
  71.6000         3
  71.6500         4
  71.7000         3
  71.7500         3
  71.8000         3
  71.8500         6
  71.9000         6
  71.9500         9
  72.0000         5
  72.0500         2
  72.1000         1
  72.1500         0
  72.2000         6
  72.2500         8
  72.3000         6
  72.3500         4
  72.4000         7
  72.4500        10
  72.5000        13
  72.5500        13
  72.6000        12
  72.6500         9
  72.7000         3
  72.7500         9
  72.8000         7
  72.8500         3
  72.9000         1
  72.9500         5
  73.0000         5
  73.0500         5
  73.1000         9
  73.1500        12
  73.2000        29
  73.2500        25
  73.3000         9
  73.3500         7
  73.4000        14
  73.4500        15
  73.5000         7
  73.5500         6
  73.6000         8
  73.6500         8
  73.7000         3
  73.7500         2
  73.8000         7
  73.8500         2
  73.9000         1
  73.9500         3
  74.0000         5
  74.0500         1
  74.1000         3
  74.1500         2
  74.2000         1
  74.2500         1
  74.3000         4
  74.3500         5
  74.4000         5
  74.4500         5
  74.5000         5
  74.5500         3
  74.6000         5
  74.6500         2
  74.7000         3
  74.7500         5
  74.8000         7
  74.8500         6
  74.9000         2
  74.9500         6
  75.0000         5
  75.0500         2
  75.1000         6
  75.1500         5
  75.2000         4
  75.2500         3
  75.3000         3
  75.3500         6
  75.4000         3
  75.4500         4
  75.5000         5
  75.5500         1
  75.6000         6
  75.6500         4
  75.7000         1
  75.7500         4
  75.8000         1
  75.8500         1
  75.9000         8
  75.9500         8
  76.0000         3
  76.0500         5
  76.1000         7
  76.1500         2
  76.2000         7
  76.2500         2
  76.3000         4
  76.3500         4
  76.4000         3
  76.4500         5
  76.5000         5
  76.5500         3
  76.6000         4
  76.6500         3
  76.7000         4
  76.7500         5
  76.8000         7
  76.8500         6
  76.9000         4
  76.9500         6
  77.0000        18
  77.0500        30
  77.1000        23
  77.1500        13
  77.2000        20
  77.2500        14
  77.3000         7
  77.3500        13
  77.4000         8
  77.4500         5
  77.5000        10
  77.5500         5
  77.6000         7
  77.6500         1
  77.7000         5
  77.7500         1
  77.8000         3
  77.8500         3
  77.9000         3
  77.9500         5
  78.0000         6
  78.0500         8
  78.1000         7
  78.1500         5
  78.2000         1
  78.2500         0
  78.3000         1
  78.3500         1
  78.4000         5
  78.4500         3
  78.5000         3
  78.5500         4
  78.6000         3
  78.6500         2
  78.7000         3
  78.7500         2
  78.8000         4
  78.8500         4
  78.9000         5
  78.9500         2
  79.0000         4
  79.0500         6
  79.1000         5
  79.1500         5
  79.2000         6
  79.2500         3
  79.3000         2
  79.3500         5
  79.4000         9
  79.4500        17
  79.5000        22
  79.5500        19
  79.6000        23
  79.6500        16
  79.7000        16
  79.7500        14
  79.8000        15
  79.8500        16
  79.9000        12
  79.9500         3
  80.0000         3
  80.0500         3
  80.1000         4
  80.1500         4
  80.2000         7
  80.2500         1
  80.3000         8
  80.3500         6
  80.4000         1
  80.4500         2
  80.5000         2
  80.5500         2
  80.6000         3
  80.6500         1
  80.7000         3
  80.7500         3
  80.8000         4
  80.8500         1
  80.9000         2
  80.9500         3
  81.0000         4
  81.0500         3
  81.1000         2
  81.1500         5
  81.2000         5
  81.2500         2
  81.3000         2
  81.3500         2
  81.4000         4
  81.4500         3
  81.5000         3
  81.5500         4
  81.6000         2
  81.6500         1
  81.7000         2
  81.7500         4
  81.8000         3
  81.8500         1
  81.9000         4
  81.9500         4
  82.0000         7
  82.0500         9
  82.1000         4
  82.1500         4
  82.2000         7
  82.2500         3
  82.3000         4
  82.3500         0
  82.4000         2
  82.4500         3
  82.5000         3
  82.5500         8
  82.6000         5
  82.6500         1
  82.7000         5
  82.7500         5
  82.8000         6
  82.8500         2
  82.9000         2
  82.9500         2
  83.0000         2
  83.0500         2
  83.1000         5
  83.1500         3
  83.2000         4
  83.2500         3
  83.3000         3
  83.3500         7
  83.4000         6
  83.4500         4
  83.5000         4
  83.5500         3
  83.6000         4
  83.6500         1
  83.7000         3
  83.7500         5
  83.8000         5
  83.8500         3
  83.9000         5
  83.9500         4
  84.0000         0
  84.0500         1
  84.1000         4
  84.1500         1
  84.2000         3
  84.2500         1
  84.3000         8
  84.3500         3
  84.4000         4
  84.4500         3
  84.5000         3
  84.5500         3
  84.6000         3
  84.6500         6
  84.7000         5
  84.7500         1
  84.8000         3
  84.8500         3
  84.9000         4
  84.9500         3
  85.0000         5
  85.0500         5
  85.1000         5
  85.1500         6
  85.2000        10
  85.2500         7
  85.3000         7
  85.3500         7
  85.4000        20
  85.4500        30
  85.5000        39
  85.5500        49
  85.6000        32
  85.6500        31
  85.7000        25
  85.7500        23
  85.8000        16
  85.8500        12
  85.9000         7
  85.9500        13
  86.0000         8
  86.0500         7
  86.1000        10
  86.1500         1
  86.2000         7
  86.2500         4
  86.3000         8
  86.3500         6
  86.4000         4
  86.4500         6
  86.5000        10
  86.5500         7
  86.6000         1
  86.6500         1
  86.7000         3
  86.7500         5
  86.8000         7
  86.8500         5
  86.9000        10
  86.9500         8
  87.0000         3
  87.0500         6
  87.1000         6
  87.1500        12
  87.2000         4
  87.2500         5
  87.3000         3
  87.3500         6
  87.4000         6
  87.4500         6
  87.5000        11
  87.5500         7
  87.6000         3
  87.6500         3
  87.7000         4
  87.7500         2
  87.8000         6
  87.8500         8
  87.9000         8
  87.9500         7
  88.0000         4
  88.0500         9
  88.1000         7
  88.1500        24
  88.2000        19
  88.2500        33
  88.3000        29
  88.3500        41
  88.4000        34
  88.4500        22
  88.5000        21
  88.5500        27
  88.6000        25
  88.6500         9
  88.7000        12
  88.7500         8
  88.8000         8
  88.8500         4
  88.9000         9
  88.9500         4
  89.0000         7
  89.0500         3
  89.1000         4
  89.1500         7
  89.2000         7
  89.2500        11
  89.3000        11
  89.3500         7
  89.4000         8
  89.4500        16
  89.5000         7
  89.5500        11
  89.6000         9
  89.6500        12
  89.7000         4
  89.7500         8
  89.8000        10
  89.8500         9
  89.9000         3
  89.9500         7
  90.0000         3
  90.0500         2
  90.1000         5
  90.1500         3
  90.2000         7
  90.2500         4
  90.3000         3
  90.3500         5
  90.4000         6
  90.4500         1
  90.5000         5
  90.5500         4
  90.6000         5
  90.6500         6
  90.7000         5
  90.7500         5
  90.8000         2
  90.8500         3
  90.9000         2
  90.9500         4
  91.0000         8
  91.0500         5
  91.1000         2
  91.1500         1
  91.2000         4
  91.2500         3
  91.3000         1
  91.3500         5
  91.4000         3
  91.4500         8
  91.5000         5
  91.5500         2
  91.6000         3
  91.6500         3
  91.7000         6
  91.7500         6
  91.8000         3
  91.8500         4
  91.9000         3
  91.9500         4
  92.0000         2
  92.0500         2
  92.1000         6
  92.1500         2
  92.2000         8
  92.2500         3
  92.3000         2
  92.3500         4
  92.4000         4
  92.4500         4
  92.5000         3
  92.5500         2
  92.6000         3
  92.6500         4
  92.7000         4
  92.7500         2
  92.8000         5
  92.8500         5
  92.9000         3
  92.9500         3
  93.0000         6
  93.0500         6
  93.1000         2
  93.1500         6
  93.2000         4
  93.2500         2
  93.3000         4
  93.3500         5
  93.4000         3
  93.4500         6
  93.5000         2
  93.5500         4
  93.6000         5
  93.6500         2
  93.7000         3
  93.7500         6
  93.8000         4
  93.8500         1
  93.9000         3
  93.9500         3
  94.0000         1
  94.0500         8
  94.1000         7
  94.1500         0
  94.2000         5
  94.2500         3
  94.3000         1
  94.3500         6
  94.4000         1
  94.4500         3
  94.5000         8
  94.5500         4
  94.6000         4
  94.6500         6
  94.7000         4
  94.7500         3
  94.8000         8
  94.8500         4
  94.9000         5
  94.9500         4
  95.0000         3
  95.0500         4
  95.1000         4
  95.1500         5
  95.2000         9
  95.2500         6
  95.3000         5
  95.3500         5
  95.4000         8
  95.4500         7
  95.5000         7
  95.5500         4
  95.6000         9
  95.6500        12
  95.7000         7
  95.7500         6
  95.8000         4
  95.8500         9
  95.9000         7
  95.9500         5
  96.0000         6
  96.0500         5
  96.1000         3
  96.1500         5
  96.2000         7
  96.2500         7
  96.3000         2
  96.3500         6
  96.4000         4
  96.4500         2
  96.5000         2
  96.5500         2
  96.6000         5
  96.6500         6
  96.7000         9
  96.7500         5
  96.8000        13
  96.8500         7
  96.9000         2
  96.9500         2
  97.0000         6
  97.0500         8
  97.1000         5
  97.1500         2
  97.2000         3
  97.2500         2
  97.3000         6
  97.3500         9
  97.4000         8
  97.4500        12
  97.5000        11
  97.5500         9
  97.6000         5
  97.6500         2
  97.7000         7
  97.7500         4
  97.8000        10
  97.8500         1
  97.9000         8
  97.9500         5
  98.0000         7
  98.0500         5
  98.1000         3
  98.1500         1
  98.2000         3
  98.2500         3
  98.3000         7
  98.3500         6
  98.4000         7
  98.4500         4
  98.5000         0
  98.5500         2
  98.6000         2
  98.6500         7
  98.7000         6
  98.7500         4
  98.8000         2
  98.8500         4
  98.9000         4
  98.9500         5
  99.0000         6
  99.0500         6
  99.1000         5
  99.1500         3
  99.2000         8
  99.2500         8
  99.3000        18
  99.3500        21
  99.4000        15
  99.4500        39
  99.5000        36
  99.5500        19
  99.6000        18
  99.6500        19
  99.7000        18
  99.7500        14
  99.8000        14
  99.8500        18
  99.9000        14
  99.9500         7
 100.0000         7
 100.0500         5
 100.1000         8
 100.1500         9
 100.2000         4
 100.2500         9
 100.3000         4
 100.3500         2
 100.4000         5
 100.4500         5
 100.5000        11
 100.5500         4
 100.6000         1
 100.6500         3
 100.7000         7
 100.7500         9
 100.8000         6
 100.8500         6
 100.9000         5
 100.9500         6
 101.0000         2
 101.0500         3
 101.1000         8
 101.1500         3
 101.2000         5
 101.2500         5
 101.3000         3
 101.3500         9
 101.4000         5
 101.4500         5
 101.5000         3
 101.5500         3
 101.6000         2
 101.6500         5
 101.7000         3
 101.7500         5
 101.8000         3
 101.8500         3
 101.9000         1
 101.9500         5
 102.0000         4
 102.0500         4
 102.1000         2
 102.1500         6
 102.2000         9
 102.2500         5
 102.3000         3
 102.3500         1
 102.4000        10
 102.4500         2
 102.5000         2
 102.5500         2
 102.6000         4
 102.6500         5
 102.7000         3
 102.7500         7
 102.8000         3
 102.8500         5
 102.9000         2
 102.9500         7
 103.0000         2
 103.0500         4
 103.1000         5
 103.1500         4
 103.2000         7
 103.2500        12
 103.3000        10
 103.3500         5
 103.4000        10
 103.4500         5
 103.5000         4
 103.5500        10
 103.6000         9
 103.6500         3
 103.7000         9
 103.7500         5
 103.8000         4
 103.8500         6
 103.9000         2
 103.9500         4
 104.0000         4
 104.0500         2
 104.1000         2
 104.1500         5
 104.2000         7
 104.2500         3
 104.3000         3
 104.3500         2
 104.4000         1
 104.4500         1
 104.5000         4
 104.5500         3
 104.6000         3
 104.6500         6
 104.7000         6
 104.7500         9
 104.8000         8
 104.8500         8
 104.9000         5
 104.9500         6
 105.0000         4
 105.0500         3
 105.1000         4
 105.1500         4
 105.2000         6
 105.2500         5
 105.3000         5
 105.3500         5
 105.4000         2
 105.4500         4
 105.5000         5
 105.5500         6
 105.6000         3
 105.6500         3
 105.7000         6
 105.7500         1
 105.8000         3
 105.8500         3
 105.9000         3
 105.9500         1
 106.0000         2
 106.0500         5
 106.1000         4
 106.1500         6
 106.2000         4
 106.2500         4
 106.3000         4
 106.3500         3
 106.4000         2
 106.4500         4
 106.5000         2
 106.5500         4
 106.6000         3
 106.6500        10
 106.7000         4
 106.7500         2
 106.8000         5
 106.8500         6
 106.9000         3
 106.9500         5
 107.0000         2
 107.0500        14
 107.1000         7
 107.1500         5
 107.2000         7
 107.2500         3
 107.3000         3
 107.3500         3
 107.4000         6
 107.4500         5
 107.5000         7
 107.5500         4
 107.6000         6
 107.6500         9
 107.7000         3
 107.7500         7
 107.8000         6
 107.8500        16
 107.9000         6
 107.9500        19
 108.0000        21
 108.0500        21
 108.1000        25
 108.1500        22
 108.2000        18
 108.2500        12
 108.3000        22
 108.3500        13
 108.4000         8
 108.4500        18
 108.5000        13
 108.5500        10
 108.6000        12
 108.6500         8
 108.7000         2
 108.7500         9
 108.8000         3
 108.8500         6
 108.9000         7
 108.9500         1
 109.0000         9
 109.0500         7
 109.1000         5
 109.1500         5
 109.2000         2
 109.2500         3
 109.3000         3
 109.3500         3
 109.4000         6
 109.4500         3
 109.5000         1
 109.5500         5
 109.6000         6
 109.6500         8
 109.7000         4
 109.7500         5
 109.8000         9
 109.8500         5
 109.9000         2
 109.9500         4
 110.0000         5
